-0.065108787,0.145715082,-0.012701328,0.037054111,0.036686278,-0.056071076,0.050155097,-0.088132466,0.07517004,-0.065503146,0.041307664,-0.011383104,0.139328598,-0.167062331,0.138166829,-0.102012287,0.215841087,-0.230363198,0.044509607,-0.039262117,0.053518905,-0.032137071,0.169067572,-0.216797946,0.093045811,-0.023552308,0.068648674,-0.117807646,0.27071771,-0.020727118,0.092041916,-0.155278852,0.040192452,-0.078869318,0.103131664,-0.03270864,0.16915597,0.013175969,-0.335058526,-0.130496692,0.12208174,-0.454097221,-0.101867087,0.088595947,0.013780859,0.024658525,-0.155496625,0.207795104,0.037301931,-0.076157935,-0.112990759,0.053024536,0.042213129,0.058844074,-0.096316897,-0.045518021,-0.023886703,0.015455213,0.045081002,0.011410476,0.033742137,-0.024776281,-0.016390752,0.026294075,0.015541333,0.006656211,0.006837859,0.010561382,0.02675195,-0.03214896,-0.003897665,-0.015598802,-0.001089181,-0.016156779,-0.005047413,0.01796913,0.017077657,0.007739839,0.003352425,0.005497377,-0.010620577,-0.001382191,-0.000234683,-0.001018228,-0.016363668,-0.034474757,0.119721556,0.046092581,0.015279003,0.021556024,-0.014469371,-0.015093558,-0.00056793,-0.0079327,0.001272839,0.002592909,0.000645429,0.002673364,0.000541039,0.000233227,0.000128986,0.000175942,0.000123221,0.000173004,6.38E-06,7.23E-06,2.84E-11,1.71E-11,0,0
0.082708277,-0.137624322,-0.039111874,-0.074241313,-0.067023009,0.023516693,0.027553332,0.069212879,-0.053545265,0.155059799,-0.002214236,0.058796933,-0.116240896,-0.067643213,0.122471798,-0.095012528,-0.054493775,-0.175549698,0.157911986,-0.148973606,0.105671977,-0.125837877,-0.022505171,-0.085246299,-0.118892036,0.081297893,-0.030665909,0.012982962,-0.223759263,-0.127863597,0.17176651,0.093904363,0.013788667,-0.22921927,-0.044233412,-0.160562066,0.247163838,-0.081631711,-0.171027093,0.013664073,6.77E-05,0.080371272,-0.383912429,0.199733372,-0.047519002,-0.080511843,0.131112044,-0.111430758,0.238293693,-0.000283626,0.060419573,0.135720325,0.010242436,0.041725729,0.171755627,0.194922629,0.086113932,-0.048225656,-0.088369923,-0.140189307,-0.071470681,0.019568089,-0.03345796,-0.037397683,-0.045106232,-0.018988623,-0.004850115,0.002826363,-0.066668675,0.030154477,0.019984967,0.01533518,-0.005619599,0.010994634,0.009670955,-0.008253993,-0.004973598,-0.027063785,0.007582865,0.001572887,0.015056876,-0.0117782,-0.007979149,0.000191046,0.014805474,0.032441394,-0.14699887,-0.064350284,-0.014503535,-0.031532256,0.014086982,0.011522301,0.004537805,0.007658803,-0.005350968,-0.002534562,-0.000789801,-0.00132346,0.002391609,-0.000342552,6.52E-06,9.93E-05,-3.38E-06,0.000103907,-5.79E-06,1.36E-05,1.59E-10,-1.16E-11,6.01E-17,-7.58E-17
0.052685801,0.03540573,-0.091440025,-0.140247823,-0.032256922,-0.058138831,0.041488957,-0.041598198,-0.045067079,0.059456821,0.009082401,0.050012686,0.014702292,-0.166262972,0.170191669,-0.074506849,0.021296066,-0.234444154,0.101295336,-0.175831182,0.029874652,-0.065740712,0.315223186,-0.163924859,0.062058922,0.609652236,-0.120756997,-0.00761161,0.201101691,-0.030590473,-0.074008367,0.209742777,-0.047304592,-0.017602518,-0.124367412,-0.024683101,-0.120718265,-0.002557788,0.230091718,-0.005819717,-0.043172009,0.14349613,0.122587278,-0.132815387,0.014246089,0.011468529,0.026704262,-0.015933888,-0.11106233,0.015960931,0.037549448,-0.061936703,-0.022749589,-0.064299303,-0.062291661,-0.039558194,-0.011476322,-0.029965191,-0.02363303,0.031237921,0.010002214,0.021565143,0.029969517,0.015611169,0.045164575,0.005931928,-0.005007209,-0.013912969,0.026428163,0.006134878,-0.001310066,0.024086145,-0.002517318,0.025358979,0.008555521,-0.009911924,0.00226139,0.010253126,0.002713997,-0.001058237,-0.009914664,0.019656829,0.008144899,0.000931797,0.009137907,0.007542939,0.005526845,0.003945625,-0.004561413,0.007757617,0.00340151,0.003509438,-0.003848607,0.000224859,0.002100236,-0.001427046,-0.000576301,0.015773199,-0.002819138,0.000637456,0.00015535,-0.000496332,-0.000439258,-0.00014046,-1.03E-05,-3.05E-05,7.07E-11,-1.41E-12,-4.24E-16,4.38E-17
0.129105572,-0.144798441,-0.026028878,-0.062490143,-0.076557924,0.019203651,-0.061860189,0.036243498,-0.049966821,0.027674909,0.072656927,-0.000683587,-0.182874004,-0.106097172,-0.072536257,0.074608921,-0.160930236,0.062535483,0.032651577,-0.074306173,0.021269316,-0.062976236,-0.079828446,0.036842524,-0.04233117,0.031941823,-0.075558805,0.037519086,-0.030589055,-0.034497969,0.028335361,0.020357363,-0.054134258,-0.059228254,-0.002073118,0.014957966,0.01117804,0.011619688,-0.027225564,-0.026680689,0.036831375,-0.07843081,-0.021637594,-0.00387792,-0.000949022,-0.026884877,0.044573159,-0.053211189,-0.057025832,-0.06656264,0.127560134,0.055947005,0.055700579,-0.036945678,-0.011168334,0.097157342,0.094846469,-0.015517512,-0.001520154,0.058608597,0.058641766,-0.08954988,0.02606369,0.087251224,0.036101821,0.103022685,7.51E-05,-0.020167126,0.05801484,-0.084490686,-0.023765384,-0.060870418,-0.016165178,-0.036801277,-0.000721858,0.010783942,0.018047019,0.06479391,0.019891632,0.003085189,-0.051152883,-0.032447291,0.004483805,-0.028609147,-0.131192956,-0.198525943,0.702613981,0.295702788,0.075547724,0.165293788,-0.075900762,-0.081889937,-0.011505616,-0.054162276,0.016047881,0.002019414,0.011637408,-0.010296171,-0.001895347,9.56E-05,0.000411011,-0.000772488,-0.000136078,0.002171771,2.08E-05,-1.53E-05,3.08E-10,9.91E-11,1.05E-16,3.39E-17
0.11605938,-0.145287182,-0.016936332,-0.044593917,-0.084705922,0.004140238,-0.063734912,0.026219186,-0.012004789,-0.005872727,0.081230713,0.01959073,-0.202859921,-0.162295111,-0.082660178,0.117197243,-0.194230706,0.015621459,0.019123532,-0.119251215,0.005348588,0.02537357,-0.010320712,0.131356552,-0.047720189,0.028701597,-0.059789071,-0.004892057,0.025550239,-0.096148545,0.099656379,-0.016414456,-0.097027598,-0.047704734,0.130738522,0.110814913,0.000907749,0.062069246,-0.049600097,-0.008590063,-0.021356113,-0.060169564,-0.00528513,0.04371861,0.020519803,0.04071678,-0.092768316,0.138527869,0.008955918,0.047544874,-0.198457635,-0.113894855,-0.043854927,0.023469603,-0.113713356,-0.162233378,-0.143876548,0.03321735,0.020353361,-0.019381251,-0.055043514,0.108077347,-0.012726856,-0.079404752,0.000260737,-0.083788369,0.02273034,0.039996859,0.010267432,0.039022185,0.008942058,0.041814079,-0.005009346,0.033508088,-0.025587134,0.054322785,-0.005458704,-0.009394338,-0.015957366,0.003668803,-0.024366259,0.041737698,0.02853401,-0.007167915,0.015538896,0.053658995,-0.070941747,-0.023282066,0.002209603,-0.026832264,0.021399962,-0.011438214,0.002634693,0.00634006,-0.012077791,0.026035805,-0.028512492,0.707331175,-0.043034778,-0.00293043,0.00824835,-0.008247339,-0.005792494,-0.009273732,0.000465317,-0.000797895,-7.48E-10,-1.64E-10,-1.97E-14,6.04E-16
0.116674139,-0.141776222,-0.018511899,-0.046672883,-0.085324921,0.001676087,-0.063705602,0.022036545,-0.010283254,-0.010253598,0.081048457,0.020921774,-0.206661677,-0.1709279,-0.077727012,0.116264748,-0.193692783,0.004576714,0.020221807,-0.127930925,0.004012047,0.03029618,-0.004204429,0.129004255,-0.04611977,0.045648903,-0.060396048,-0.00813257,0.027290461,-0.097721134,0.10037013,-0.009116536,-0.090694996,-0.043650378,0.124488946,0.110695646,-0.004000761,0.062472499,-0.048232207,-0.008704665,-0.021936557,-0.060238944,-0.001500669,0.033272502,0.017034298,0.046036253,-0.098799675,0.144219208,0.012947383,0.048060613,-0.2008411,-0.125735118,-0.049163657,0.015718118,-0.112362124,-0.172875497,-0.146143868,0.038316416,0.029230084,-0.025819905,-0.062729208,0.103593679,-0.015079224,-0.070541932,-0.016988097,-0.094377415,0.015445816,0.046279534,0.006606007,0.042501398,-0.003600343,0.027789027,-0.011345048,0.011403653,-0.036747296,0.043457381,-0.007425652,-0.001674242,-0.016706569,0.026679679,-0.00068772,0.009753776,0.012663874,0.004513194,0.024690965,0.037818292,-0.085761217,-0.018911091,-0.015380625,-0.025041225,-0.001979833,0.032764545,-0.004100249,0.026035653,0.00984447,-0.019789826,0.016513564,-0.698840598,0.041637365,0.003908685,-0.008252921,0.009252343,0.005648557,0.00689339,-0.000523282,0.000821649,6.72E-10,1.47E-10,1.97E-14,-6.11E-16
0.135073931,-0.121110204,-0.024907438,-0.065844919,-0.062627341,0.010917547,-0.076934014,0.00411722,-0.033284583,-0.011923469,0.102278344,-0.015594843,-0.150014352,-0.136309395,-0.084798809,0.103441124,-0.145879361,0.081032365,0.028235836,-0.055564595,0.008548455,-0.068988595,-0.08231281,-0.0071986,-0.001891688,0.02710126,-0.035595617,0.009228376,0.11613854,0.031560692,-0.034645879,-0.057471609,-0.016066733,-0.049802487,0.022430661,0.040203827,-0.013827985,0.027888808,-0.057297917,-0.08424541,0.123473848,-0.257610215,0.107885723,-0.07700064,-0.000232662,0.026983572,-0.002737417,-0.045554971,-0.171735976,-0.13628984,0.240432811,0.121642636,0.115808685,-0.037956816,-0.012490653,0.145783484,0.160593088,-0.015847556,0.047594872,0.146678024,0.185989838,-0.261585838,0.031897604,0.212859418,0.053483915,0.188896607,-0.053213014,-0.126630072,0.052696272,-0.096932935,-0.029686805,-0.091358227,0.027871391,-0.069000727,0.073908162,-0.108498722,0.034019357,-0.020514205,0.028911141,-0.061866335,0.069960456,-0.048167461,-0.0358131,0.050719227,0.056378997,0.036806109,-0.389864446,-0.21927448,-0.042021984,-0.109446718,0.042767221,0.053710632,0.018401105,0.005263377,-0.010460655,0.001077559,0.00275481,0.003641494,5.72E-05,-0.000222945,0.000183557,0.000734335,0.000403062,2.76E-05,6.33E-05,1.24E-05,-1.87E-10,-1.02E-10,-2.96E-16,7.99E-18
-0.145156125,-0.011176325,0.106064799,0.092428064,-0.002990973,-0.023424208,0.046306399,-0.010783472,0.019813728,0.000861144,0.12358565,0.01191245,-0.100488939,-0.061421938,-0.019416398,-0.02941607,0.081899207,-0.008797803,0.029230797,0.040989183,-0.082346155,-0.145400068,0.010443911,0.065440478,-0.030238528,0.047244951,0.05992905,-0.096087669,0.085766878,-0.10993989,0.019316075,-0.040882643,-0.151076823,-0.110990155,-0.135819109,0.249820227,-0.274485446,-0.042321757,-0.122664907,0.090233094,-0.17273452,-0.138499199,0.142239596,-0.15752692,0.020447726,-0.298976877,-0.228219337,-0.355553516,0.453931467,0.054502064,0.083799947,-0.04033609,0.035245391,0.086559235,0.031185534,0.075629147,0.039798987,0.081251419,0.039918137,0.057148492,0.002783313,0.023941449,-0.006391013,-0.106296419,-0.008173202,-0.026882238,-0.008464082,-0.020843734,0.005914619,0.018025364,-0.039714202,-0.003673567,-0.006266039,0.003771522,0.009499084,0.00258188,-0.008947965,-0.017008039,-0.022430561,-0.006489781,0.003708464,0.000901527,0.008415338,0.006408892,0.001759951,-0.024255533,0.009404846,-0.007264365,0.007863435,-0.020012147,0.037610168,0.045204499,0.00609048,0.01213682,0.0088086,0.001550279,-0.007719545,0.001860168,-0.000221127,-0.000793956,-0.000169825,-0.000308722,-0.000126978,3.27E-05,-3.94E-06,2.57E-05,-7.96E-11,-2.20E-11,-1.41E-16,-1.16E-16
0.148009675,0.053648244,-0.123433325,-0.099033247,0.001693919,0.055717017,-0.02525265,-0.006531792,-0.008486614,0.018225244,-0.080754377,-0.022662054,0.033508826,0.045978383,-0.020797405,0.037818363,-0.090860738,-0.066530037,-0.010918093,0.033381816,-0.066736077,0.092826891,0.026737998,-0.009415203,0.055665076,-0.04906594,-0.064227826,0.026408149,-0.003867117,0.063020571,0.011516225,0.031059056,0.111420228,0.051024606,0.090527433,-0.119282303,0.130821351,-0.02190474,0.050768164,0.043986593,0.056907999,0.015085945,0.162693089,-0.113064624,0.035974,-0.185149937,-0.003312657,-0.189461549,0.239336825,0.043987929,-0.471960996,-0.008116925,0.001129845,0.091670208,-0.460793529,0.283964293,0.106505109,-0.130031382,-0.094668772,-0.118455805,0.039014806,-0.210922745,0.074216325,0.099260758,0.016720714,0.029338304,-0.014746989,-0.015400599,0.020900807,0.015767594,0.003201259,-0.013625398,0.022590688,0.015077598,0.006194678,-0.030783184,0.012135314,0.034040635,0.002965675,-0.011207302,-0.015534674,0.041062024,-0.001781277,-0.008177123,0.027093934,0.053322132,-0.00654234,-0.006908598,-0.013335092,0.037023463,-0.05347778,-0.065317828,-0.005441131,-0.019249756,-0.011178937,-0.013120922,0.013099463,-0.004207453,-0.000802569,0.003004599,-0.000125872,0.000697391,-0.000394587,-0.000214701,1.11E-05,-1.86E-05,3.97E-11,-3.12E-11,6.84E-16,-7.85E-17
0.002579486,0.005594604,0.004585195,-0.011903869,-0.004070389,-0.001669023,0.001493682,-0.008603092,0.004276026,-0.007058411,0.044184274,-0.026124253,-0.001209819,-0.009310781,0.012757643,-0.008371109,-0.160922313,-0.430168677,-0.079365943,0.264623246,-0.794523732,-0.192440007,-0.051869809,0.02287097,-0.091493923,-0.025199516,-0.04390397,0.014157907,-0.03029188,0.003680695,0.009537906,0.0118212,-0.032539776,-0.049640473,0.009070563,-0.012113819,0.012601729,0.02662625,0.021430728,-0.011055654,0.034455402,0.001996539,-0.04155178,0.015983971,-0.007420509,0.051346569,0.024330224,0.051959401,-0.073082226,-0.022036301,0.026975164,0.023921796,-0.002028907,-0.007015909,0.036179358,-0.022681482,-0.003718673,0.005624902,0.014224948,-0.000925763,0.000886499,0.003416056,-0.011922064,0.004964691,0.012096727,-8.05E-05,0.008998334,0.002143573,0.002548311,-0.00562227,0.012268269,0.006517454,0.001174634,0.006874891,-0.013420814,0.00466072,-0.01028453,0.009290744,0.000127686,-0.002941271,-0.004644547,0.010622009,-0.010352458,-0.004529059,0.004952378,0.009894391,0.000133552,-5.42E-05,0.00093158,0.005518427,-0.013359091,-0.015947345,0.000781793,-0.003182267,-0.001976915,0.000271828,0.006032336,-6.69E-06,0.000239565,-0.000815998,-7.18E-05,0.000254972,-1.59E-05,3.91E-05,-3.83E-06,-9.82E-06,-5.15E-11,6.22E-12,3.89E-18,-4.48E-18
0.15898681,0.077775445,-0.076028708,-0.134864456,-0.012154844,0.033730862,-0.055660773,-0.030449752,7.73E-05,-0.02795827,-0.017976422,-0.070974333,0.027008555,-0.003029029,-0.018733507,0.045994199,-0.098422821,-0.026609935,-0.025315796,0.022935099,-0.013439046,0.039608674,0.014460544,-0.049415971,0.059664313,0.009649725,0.054442164,-0.012348243,0.008161771,0.06944365,-0.017914447,-0.039559397,0.10194766,0.097194366,0.026501769,-0.026501216,0.057530925,-0.009187182,-0.012975135,-0.03554551,0.064483038,-0.020634496,0.018187244,0.03491813,-0.029597773,-0.025276662,-0.005585227,-0.187459366,-0.008405907,0.000685744,-0.019725136,0.020544593,0.031601709,0.03194936,0.056644515,-0.039452978,0.042110113,0.041434009,0.026048352,-0.036283284,-0.030766582,0.092805891,0.02437548,-0.009227079,0.057229636,-0.04879064,0.058813293,0.030200867,0.029665287,0.016103839,0.086844423,0.084769997,-0.056816859,0.121645578,-0.006714416,0.041558378,-0.019180215,-0.06188503,-0.020612247,-0.00230683,0.016810356,-0.027484184,0.058384913,-0.059808614,-0.067441974,-0.268886217,0.093855592,0.032120968,0.020678726,-0.234566779,0.476251594,0.545889722,0.05485624,0.167687989,0.08994577,0.09150987,-0.1879711,-2.67E-05,-0.00590126,-0.00074516,0.000917709,-0.001481666,0.000361989,-0.000740362,5.38E-05,0.000100903,-6.94E-10,1.22E-11,-4.20E-15,4.03E-16
0.146798447,0.069992272,-0.079010785,-0.140857098,-0.017472775,0.034754156,-0.068471313,-0.031302059,0.015962814,-0.038339037,0.000701614,-0.073817311,0.035500811,-0.008935356,-0.009465825,0.064773587,-0.160331813,-0.074285997,-0.027664833,-0.033062249,-0.025357037,0.07944912,0.056094893,-0.060424099,0.12795901,0.02155077,0.06634415,-0.035371555,-0.046353139,0.050023208,-0.008290644,-0.078982141,0.111417469,0.254781518,-0.067312687,0.011917069,-0.000352076,-0.045287974,-0.128641293,0.012198974,-0.090367704,-0.024276404,0.018454754,0.104479393,-0.017149333,-0.017349464,-0.0064809,-0.017082551,0.144334656,0.050453138,0.128391428,-0.121241792,-0.081014191,-0.101942427,0.064323934,-0.018524651,-0.050068937,0.002257895,-0.074290233,0.051217236,0.016325733,0.095158155,0.044168243,-0.066321218,-0.100900497,0.01717923,-0.058892634,-0.01072562,-0.057382556,-0.010311451,-0.097143315,-0.103939616,0.019886182,-0.157427849,0.074471617,-0.033924146,0.08318654,-0.048085517,0.021897182,0.003485939,0.046888075,-0.111761281,0.053356743,0.085007631,-0.011919229,-0.012928984,-0.025359434,-0.000823131,0.020590915,0.059496027,-0.062650523,-0.071350745,-0.027952884,-0.044821534,-0.017755284,-0.02855991,0.035046168,0.008483999,-0.001226569,-0.706192799,-0.012033155,0.001509579,-0.032954373,0.005543255,-0.000597676,0.000204936,-1.19E-09,3.47E-10,7.08E-15,-3.68E-15
0.146960712,0.070257934,-0.078527892,-0.140435259,-0.017421487,0.03455643,-0.06857039,-0.031731341,0.015661711,-0.038931707,0.001249369,-0.074059069,0.035065195,-0.009343987,-0.009757337,0.063997693,-0.159681266,-0.074665837,-0.029215315,-0.031926626,-0.025555431,0.078558356,0.056263835,-0.060621339,0.128035536,0.020902995,0.066528155,-0.036286284,-0.048091037,0.049117704,-0.007743763,-0.079369463,0.111151692,0.253777888,-0.068440556,0.012117932,-0.000687657,-0.045330882,-0.129203685,0.013298133,-0.091395065,-0.02355057,0.019002081,0.104563215,-0.016678992,-0.016545547,-0.005125242,-0.015721675,0.145066006,0.048761212,0.13068081,-0.120348401,-0.080940679,-0.103176058,0.066072042,-0.019880463,-0.050558271,0.002175377,-0.073025724,0.052788604,0.016614354,0.093222681,0.040997958,-0.070054192,-0.101606305,0.016496345,-0.057424091,-0.013272999,-0.055815735,-0.012975302,-0.095737641,-0.104722447,0.018249681,-0.154828355,0.074498217,-0.033984973,0.082030527,-0.05213909,0.021583827,0.006654326,0.047513519,-0.114754666,0.053229625,0.082362791,-0.011616817,-0.014289624,-0.023578696,-0.006387917,0.024620944,0.058533264,-0.066389145,-0.068858871,-0.031244959,-0.041654727,-0.014653734,-0.025975869,0.035945478,0.015805548,0.002831904,0.706151271,0.012679548,-0.003007219,0.031935788,-0.005040961,0.000601304,-0.000211012,1.23E-09,-3.64E-10,-5.25E-15,3.50E-15
0.156303474,0.066110113,-0.028428116,-0.14306468,-0.019503229,0.026578748,-0.052475014,-0.048913688,0.008442592,-0.035458261,0.016612677,-0.105494367,0.010254885,-0.012386367,-0.011302526,0.049603372,-0.107599132,0.029785277,0.012460085,0.008201562,0.016047522,0.020356283,-0.022220969,-0.065708835,0.050276132,0.048293796,0.123954278,-0.019676993,0.045316632,0.092874477,-0.022669388,-0.058461831,0.149889257,0.070178378,0.030890714,0.044025331,0.01534541,-0.029377236,-0.048139745,-0.086603315,0.086417515,-0.0697884,0.024494495,0.091253192,-0.071611444,0.040505251,-0.048955463,-0.358744908,-0.07191769,-0.009435356,0.083412205,0.062740512,0.09887721,0.130348047,0.174902008,-0.10418218,0.056517393,0.076682601,0.04786521,-0.010044098,-0.039239048,0.108419302,0.034825055,-0.031025407,0.16370417,-0.08179763,0.032531332,-0.026290657,0.096926884,0.155142414,0.036743079,0.176811282,-0.051743943,0.310668917,-0.121193264,0.056685564,-0.110674596,0.136174372,-0.05230216,0.042502652,-0.127184575,0.306538225,-0.142255788,-0.173833756,0.066267848,0.134411652,-0.032059765,0.012152907,-0.098276016,0.042891995,-0.2090193,-0.222417197,-0.037060247,-0.059649856,-0.03838011,-0.059005614,0.101611282,-0.015081238,0.003008034,0.001372207,-0.000859489,0.001706063,-0.0007278,1.28E-05,-9.70E-05,-9.93E-05,3.67E-10,7.24E-11,-2.79E-16,-1.08E-16
-0.154272592,-0.090889144,0.069420811,0.042815482,-0.066387266,0.039302214,0.016965258,-0.098909619,0.066453782,-0.00268563,0.048444949,0.011342612,-0.091653276,-0.051407026,0.002983005,-0.017632612,-0.004956556,0.034313914,0.035927171,-0.044598559,-0.039658727,-0.0627062,0.0276637,0.030776952,0.004539149,0.093371246,0.060303543,-0.021739012,-0.014067178,0.055115924,-0.008863896,-0.000902023,0.088876357,0.228977046,-0.035354214,0.059807087,0.038574741,-0.071941581,-0.123407078,-0.018031526,-0.108878449,0.007599145,0.054197628,0.035170648,-0.069985149,0.028715753,0.213580487,-0.098192325,0.079055862,0.008651035,-0.154956141,0.171415315,-0.075754439,-0.224083453,0.075499959,-0.18834917,-0.082275283,-0.33891521,0.557444396,-0.256643773,0.040893917,-0.213498541,-0.046375228,0.033679554,-0.020044901,0.030749607,0.060840045,-0.005169214,0.022867094,-0.096301286,0.051102503,0.060938379,0.023691759,0.002648895,0.034336922,0.007640703,0.009505795,0.003807771,0.014789441,-0.017630303,-0.006816389,-0.015235533,0.017492237,-0.004668786,-0.013722352,0.010894099,0.003557997,0.021158659,-0.0319124,0.007420638,0.013312749,0.001944523,-0.018203927,-0.013769046,-0.007283454,-0.035506509,0.030179901,0.007119541,-0.001832058,-0.001095906,0.000778122,-0.000808983,0.001189346,0.000206119,-1.04E-05,4.87E-05,-2.49E-10,7.89E-12,3.96E-16,1.13E-17
0.151215901,0.121958678,-0.061463562,-0.003452968,0.051721792,0.058415146,0.000381573,0.078411267,-0.021859353,0.082108148,-0.03742385,-0.021317464,0.03074956,0.041457911,-0.052581125,0.004196001,0.059085297,0.05037762,0.028770344,-0.027478848,-0.050791683,0.049333872,0.009607052,-0.034159497,-0.012042648,-0.102125136,-0.042460846,-0.025578464,0.064416896,-0.019675589,0.002494329,0.03852771,-0.109096716,-0.17888856,0.027620857,-0.027774496,-0.002231858,-0.001842415,0.040011976,0.007300868,0.012241666,-0.023201296,-0.057481489,-0.101662057,0.012848342,-0.173597271,-0.065892908,-0.039635214,-0.098500903,0.007437695,0.00610064,0.150646412,0.02204657,-0.094310822,0.003640967,-0.100953873,-0.072167031,-0.053709571,0.245411474,-0.27253199,-0.050618854,0.353588337,0.476825303,0.088668131,0.036546508,0.04409186,-0.266041146,-0.271258596,-0.138661398,0.004171441,-0.169494486,-0.082667361,-0.090093437,-0.107526801,0.009544879,-0.025404269,-0.037961191,0.056821226,0.018770784,-0.028046094,-0.02767388,-0.014194664,-0.025129606,0.054299652,0.000837081,0.030842654,0.005900741,-0.010755074,0.051860954,-0.017153289,-0.020294767,-0.022037329,0.027425455,0.036220136,0.01205012,0.041151432,-0.039071713,0.000124823,0.000962762,0.002256932,-0.001506099,-0.000987053,-0.003004745,0.000414132,-6.43E-05,-1.64E-05,8.15E-11,7.97E-12,1.85E-16,-7.85E-19
-0.00041735,0.000132594,-0.003282165,0.00547406,0.001503927,0.012925684,0.000644472,0.022163269,0.010506288,0.006919607,0.001758391,-0.001755749,-0.02254872,0.011595586,-0.075901606,-0.103122711,0.342292559,0.273469123,0.329884619,-0.598166643,-0.483746029,0.080821895,-0.041507158,0.079075068,0.06099288,-0.000699547,0.009123566,0.094903527,0.007842923,0.047473894,-0.023210514,0.000111643,0.075246448,0.124153179,0.049867632,-0.037532192,0.070035213,0.020335823,0.001141725,-0.03150451,0.049303844,-0.007034952,0.019560144,0.053254075,-0.009193153,-0.000923797,-0.012569268,-0.033193177,0.03229509,-0.00253884,0.000582358,-0.029234616,0.000225369,-0.004955754,0.010730298,0.02579109,0.035720466,0.065737527,-0.074165826,0.062683692,0.000890174,0.032895189,-0.019455102,-0.016412353,-0.005226673,0.003401829,0.009343266,0.016016142,-0.00067591,0.004514893,-0.001554644,-0.003879764,0.004048407,0.004260481,-0.008790217,-0.000186666,-0.001824444,0.00266765,-0.008066031,0.009552399,0.005024934,-0.006554621,0.003801853,0.000635402,-0.001939342,-0.000465516,0.003152131,-0.001944886,0.010289625,-0.005861736,0.006743698,0.007395357,-0.000466212,0.005068934,0.002515657,0.015203085,-0.01533541,0.000636299,8.05E-05,0.000970352,-5.50E-05,0.000147302,-0.000314048,2.10E-05,-9.20E-06,-1.07E-05,6.05E-11,-2.22E-12,-2.94E-16,-1.27E-17
0.159384542,0.132424096,0.001504974,-0.065579359,0.047033034,0.025596903,-0.029329632,0.060766033,-0.027514878,0.019615972,0.003550806,-0.05940779,0.025827252,0.024961211,-0.029078522,-0.016287731,0.050413457,0.039941141,0.020103157,-0.030108096,-0.035888075,0.026630421,0.011481603,-0.057613733,-0.005148336,-0.055728709,0.033429677,-0.02684007,-0.024254426,-0.035688007,0.001430358,0.013023108,-0.073465183,-0.149391258,-0.019652119,0.065230053,-0.061732437,-0.00914081,0.014867727,-0.028325415,-0.014738942,0.024523638,-0.09202334,-0.072208251,0.00635718,-0.026790914,-0.076669984,-0.066220201,-0.143122176,0.009908245,-0.029784191,-0.007334046,0.06680567,0.101959064,-0.011154444,-0.044014425,-0.020836166,-0.0441886,0.043236528,-0.091107116,-0.039600677,-0.047725078,-0.045473461,0.002314165,0.01369854,-0.041894061,0.070313108,0.103691343,0.00588067,-0.065032731,0.091422392,0.039378641,0.025701358,-0.00747095,0.064608271,0.010086108,0.055929809,-0.099630748,0.037981115,0.010945314,0.043700921,-0.135942507,0.084330784,0.071865803,-0.031580593,-0.066875083,-0.046061557,0.032816887,0.014058694,0.110392383,0.094162109,0.203569676,-0.195788213,-0.261328087,-0.060050375,-0.510120959,0.522824706,0.035699553,-0.009734121,0.000188203,0.003384518,-0.002237668,0.001546251,-0.001703451,6.43E-05,-6.90E-05,-2.00E-09,-5.94E-11,-1.34E-15,3.06E-16
0.153907951,0.129997523,-0.00473578,-0.074339575,0.041620635,0.022447494,-0.030439881,0.058504104,-0.019619282,0.014969725,0.013488743,-0.073584751,0.033187504,0.035445583,-0.032478586,-0.015669065,0.047564101,0.021832439,0.010584499,-0.062543001,-0.051871022,0.057985173,0.039303262,-0.05319062,0.027460499,-0.063230881,0.04160588,-0.075281813,-0.10537032,-0.067226926,0.026207967,-0.024257181,-0.105319091,-0.06296022,-0.149721354,0.130879367,-0.129265763,-0.063226691,-0.111206167,0.02229553,-0.165711471,0.024668686,-0.095993015,-0.065665087,0.011343149,0.071911261,0.03912587,0.139497972,-0.052679389,0.001400145,0.074670156,-0.055372818,-0.017399951,0.073361304,-0.087637368,0.040412825,-0.05528027,-0.200328918,-0.029336833,-0.074109231,0.028474405,-0.149201017,-0.025869304,0.024757366,0.003952254,-0.019264473,0.00515782,-0.023620491,0.085791443,0.064748987,-0.025073414,0.01122975,-0.025063359,0.047749487,0.021975972,0.009730733,0.050116167,-0.027803357,0.003303797,-0.061521334,-0.026594067,0.151947536,-0.013387475,-0.121579226,-0.002305379,-0.125789128,-0.008552823,0.01461319,-0.153260796,-0.095966629,-0.032482993,-0.054349854,0.038645652,0.051973806,0.002625294,0.07291893,-0.093503524,-0.002950007,0.000719959,-0.032805855,-0.002041319,0.042819297,0.705730538,-0.011063411,-0.001723813,-0.004198233,-5.96E-09,-4.99E-10,-4.05E-15,1.10E-14
0.153930523,0.130016864,-0.004462189,-0.074051385,0.041617677,0.022329359,-0.030511403,0.058417727,-0.019625297,0.014628017,0.013811185,-0.073753637,0.03291715,0.034856732,-0.032503487,-0.016070121,0.047795769,0.022009355,0.01014676,-0.062116901,-0.05167133,0.057726203,0.039434245,-0.053131024,0.027306918,-0.063511486,0.041692387,-0.075147413,-0.105771382,-0.067472907,0.026062443,-0.02385565,-0.105224105,-0.062841262,-0.149697264,0.130916383,-0.129230697,-0.062955315,-0.11167807,0.022658457,-0.16612578,0.024681057,-0.096137854,-0.066263205,0.011411372,0.072604884,0.039549613,0.140510989,-0.052762086,0.000993102,0.075016247,-0.055368469,-0.016632232,0.073856217,-0.08739642,0.040666549,-0.054953955,-0.201507434,-0.028164422,-0.073044364,0.029081493,-0.151960014,-0.028101997,0.023376947,0.002810945,-0.019725999,0.006951414,-0.022039704,0.08743261,0.064441608,-0.023402333,0.011517711,-0.025114789,0.048996879,0.021003969,0.009683874,0.049507561,-0.029972587,0.003159908,-0.060934675,-0.02574695,0.150037521,-0.011564563,-0.121257613,-0.00352159,-0.126459228,-0.0090217,0.014619328,-0.155267555,-0.097724829,-0.033549425,-0.053998562,0.033007096,0.054673548,0.004200343,0.070747806,-0.093618796,-0.014434787,0.005533291,0.031777605,0.002409247,-0.042155852,-0.704144016,0.011163821,0.001738116,0.004205849,6.92E-09,5.10E-10,6.40E-15,-1.11E-14
0.157340376,0.109449078,0.056295143,-0.091774379,0.027891797,0.01602528,-0.040867254,0.001102584,-0.009119067,-0.025965986,0.028863289,-0.122929627,0.007880407,0.024421184,-0.003631441,-0.028808057,0.009823735,0.050833878,0.027714759,-0.011077131,-0.019065401,-0.007987382,-0.017136108,-0.118665707,0.007890082,0.015259544,0.093547095,-0.040780764,-0.033728317,0.0151407,0.021846302,-0.013309848,0.036849833,-0.154251827,0.006515876,0.122630957,-0.111267004,-0.042883688,-0.002347021,-0.054789287,-0.027633932,0.056264521,-0.091334907,0.01197021,-0.018171704,0.047372071,-0.064374508,-0.173318319,-0.177835955,0.027902706,-0.037862192,-0.02177654,0.080613517,0.197182476,-0.00985968,-0.083639174,-0.032271152,-0.067874673,0.040448915,-0.088874169,-0.036272716,-0.166951013,-0.164636192,-0.056856987,-0.024344463,-0.020400004,0.047811346,0.066817333,-0.004069839,-0.050292224,0.056066595,-0.027568043,0.070636694,-0.085774456,-0.035841635,-0.036718013,-0.052081769,0.058685607,-0.006418852,0.141057583,0.042705445,-0.267040369,-0.032438002,0.241181312,0.03119988,0.38340004,0.048373415,-0.026202454,0.310701742,0.255182316,0.039918906,-0.010815578,0.098394767,0.132520172,0.036688887,0.192290518,-0.252769586,-0.008171596,0.002270043,-0.001289859,-0.001736299,-0.001231296,-0.00012412,0.000927151,2.97E-06,0.000150136,2.59E-10,3.01E-11,-1.28E-15,1.51E-17
-0.150012262,-0.060220528,-0.004989854,-0.040961248,-0.049893628,0.098067907,-0.08802965,-0.119269623,0.000628273,-0.01127464,0.093544951,-0.062667918,-0.062013347,-0.082500678,-0.015323588,-0.001260628,-0.044567853,0.057193673,-0.000891174,-0.007137072,-0.033254479,0.007857852,0.095924141,-0.052186754,-0.049604557,0.020633847,0.101255388,-0.136776928,-0.058554934,0.096377156,-0.017964207,-0.090119772,0.054310916,0.118455511,-0.038150646,0.017675381,0.047864879,-0.100519571,-0.104950793,0.072188367,-0.286606718,0.080514299,-0.281275255,-0.384015669,0.071789957,-0.112601813,0.051634357,-0.001709389,-0.201009634,-0.102955667,-0.291401187,0.336590018,0.140946831,-0.117069459,0.027197812,-0.107841042,0.03069151,0.264359387,-0.24187229,0.113443727,0.005618112,-0.002820899,0.024801834,-0.04245394,0.032862922,-0.029589503,-0.000658844,-0.03136344,-0.011941674,0.006057021,-0.042194564,-0.048185462,0.014176609,-0.029765761,0.029357478,-0.026971059,0.017364697,-0.01851297,0.024263476,-0.029601263,-0.007385032,0.051426921,0.021095439,-0.030106621,-0.006393445,-0.009474403,-0.024981447,9.68E-05,0.02454134,0.04449884,-0.001430383,-0.002075377,-0.002179067,0.002244977,-0.002953182,-0.0093385,-0.023968791,-0.002898074,0.00025185,-8.90E-05,-0.000627667,0.000423931,-0.000283035,-0.000526805,-3.89E-06,-1.30E-05,2.11E-10,-2.39E-11,2.23E-15,-5.03E-17
0.147660479,0.090995937,0.022582747,0.091910438,0.057186422,0.03973488,0.056025922,-0.000988942,-0.080193388,0.12986437,-0.054970314,0.071825975,0.049491693,0.036005984,-0.034905008,0.023762205,0.01734562,0.047258464,0.027705405,0.067514908,-0.001125002,-0.022427525,0.039180611,0.073574235,-0.158889061,-0.01957366,-0.067787891,0.093299297,0.175491835,-0.057839978,0.067076548,0.000798601,-0.021761953,0.019001105,0.046314425,-0.053963402,0.056654234,0.031380862,0.013527884,-0.007356222,0.050187365,-0.062021983,0.063877031,0.046328349,-0.015952314,-0.114560304,-0.064724926,-0.116131627,0.067290036,-0.092922126,0.033527647,0.066433934,0.041869096,-0.294067455,0.157153223,-0.329124864,-0.24433536,-0.188263769,-0.466585246,-0.099511802,0.010044922,-0.34144653,-0.014169665,-0.08563499,0.054339331,-0.077455336,-0.039383838,-0.071530249,0.070441421,0.052536527,-0.118675109,0.126366349,0.062771424,-0.040691293,-0.007894725,-0.003790632,-0.036655751,0.064979162,-0.029004755,0.005752263,0.014609106,-0.055694683,-0.037494832,0.024224399,0.003011199,0.003599705,0.035631999,0.005592537,-0.007552568,-0.090697159,0.007508877,0.01304143,0.006129495,-0.006226919,0.006469962,0.014242299,0.034930693,0.001337401,-0.001188022,-0.000493105,0.000555615,0.000748389,-0.000209615,9.03E-05,2.08E-05,-4.07E-05,-4.09E-12,1.21E-12,2.31E-15,-2.69E-17
-0.001678254,0.003605767,0.01824482,0.040728092,0.035516129,0.098353368,-0.089287359,-0.240635976,-0.270668173,0.075034598,0.114813079,0.078326664,0.070605342,0.040163717,0.029199804,-0.012445744,0.059993183,-0.078060351,-0.074783507,-0.038261962,0.034066149,-0.079195069,-0.265825347,0.28144563,0.271397618,0.184201372,-0.149785912,0.060466801,0.09382719,0.087249299,0.28318536,-0.39897501,0.182733441,-0.020830651,-0.039707888,-0.13980979,0.047618766,-0.016887909,0.038828892,0.075186378,-0.052710863,0.071971273,-0.109286041,-0.144788768,0.077720369,-0.167027998,-0.096799092,0.078130194,-0.098083213,0.146761315,0.136706714,-0.091636897,0.018692036,0.114508544,0.00368797,0.013306651,-0.029206364,-0.095986206,0.067250563,-0.076458664,-0.009574325,-0.024082332,-0.012477805,0.006880837,0.03445479,-0.021820637,0.003729241,0.005477004,0.007738378,-0.001578674,-0.012059601,0.021915076,0.011935924,0.015402549,-0.019557929,0.009594088,-0.00454224,-0.004496376,0.00379116,-0.00077412,-0.005423124,0.004053461,-0.002085406,-0.009868644,-0.003630303,-0.003351945,-0.00196341,0.003061374,0.006848622,-0.004362903,0.000124502,2.65E-05,-0.003649806,-0.006630805,-0.000176356,0.001112598,0.008690873,-6.12E-05,-0.000768409,5.55E-05,-5.77E-05,8.99E-05,-9.69E-06,-2.12E-05,3.62E-05,1.08E-05,-3.29E-11,1.13E-11,-1.06E-17,1.21E-17
0.151644835,0.127965568,0.085674022,0.032851527,0.056991459,-0.006040936,0.046281059,0.061209053,-0.055636953,0.072323233,0.022436645,-0.005411437,0.016633293,-0.017257721,-0.01208394,-0.018593762,0.072558078,0.001394256,-0.026825483,0.036060042,0.0287496,-0.067053345,-0.045431833,0.133140854,-0.083049803,0.060796307,-0.026674342,0.025473949,0.058372781,-0.012038188,0.071150248,-0.043771052,0.039887739,-0.026438807,-0.003688862,0.019398426,-0.022919489,0.002827496,0.051811195,-0.050851627,0.043862799,-0.010517187,0.048424096,0.08953305,-0.013569637,0.048120317,0.012145702,-0.09308131,0.010535197,-0.077711008,-0.100611542,0.065024352,0.011940491,-0.066650351,0.029162034,-0.04007484,0.009316713,0.09310021,-0.004103403,0.022298972,-0.013132846,0.07740093,0.002841571,0.004042501,-0.071196525,0.040423715,0.043215526,0.087084699,-0.056590149,-0.112006565,0.085115789,-0.039290022,-0.002470396,-0.102161329,0.154635356,-0.020118729,0.202919431,-0.051051688,0.115421594,-0.058388923,-0.060243916,0.130787507,0.019426696,-0.045270322,0.003274193,-0.0004041,-0.072407235,0.067750528,-0.3279564,0.316797586,0.012710233,0.027487659,-0.034145604,-0.119989074,-0.050363895,-0.312331941,-0.556251181,-0.009850291,0.004239836,0.00306642,0.004971788,-0.004290643,0.000430062,-0.000906778,-2.21E-05,0.000288903,9.15E-10,-1.40E-11,1.87E-15,1.52E-16
0.149107061,0.126661221,0.081638796,0.023945598,0.053572071,-0.01100008,0.043116543,0.052956083,-0.04943762,0.058263756,0.035889441,1.58E-05,0.015453185,-0.011421248,-0.00555447,-0.02960165,0.099803614,-0.016825225,-0.050530103,0.020270442,0.032027487,-0.057581875,-0.029872235,0.189189687,-0.087716542,0.08183334,-0.032497844,-0.025200291,-0.016088358,-0.030899496,0.111801919,-0.07746592,0.041838247,0.056718526,-0.125172841,0.063969068,-0.074761372,-0.036271871,-0.045530141,-0.00861774,-0.042101699,-0.021374079,0.074136847,0.083843176,-0.022800837,0.196367038,0.159354805,0.045246803,0.071292061,-0.141840566,-0.104962304,0.110514717,-0.035263436,-0.065765385,-0.062886258,0.069762401,0.061404647,0.061876238,-0.01184389,0.072561193,0.025597977,0.071781613,0.076371479,0.036313217,0.03633241,0.001361065,-0.00857598,-0.062445126,0.058632553,0.09922659,-0.021631562,0.030016572,-0.071063536,0.117758211,-0.047949819,0.003330679,-0.032811193,-0.015021172,-0.044328125,0.023881667,0.031235428,-0.057970138,0.048337246,0.018301703,-0.006240531,-0.052224134,-0.047089454,-0.03214444,0.262299453,0.079454074,0.003867388,0.002070162,-0.032004989,0.037385272,-0.000728756,0.027312264,0.090942895,-0.000737784,0.001160208,-0.002991398,-0.001660513,0.004649829,0.002154172,-0.105968548,0.425809763,0.554403313,2.70E-08,-2.42E-09,3.87E-15,1.86E-14
0.149130312,0.126625947,0.081654267,0.023994745,0.053543015,-0.011037527,0.043109065,0.052866938,-0.049424519,0.058157424,0.035907596,6.95E-05,0.015347117,-0.0115261,-0.005578212,-0.029551783,0.099801508,-0.016890123,-0.050582304,0.020227285,0.032029996,-0.057461177,-0.029862534,0.189314791,-0.087693782,0.081760883,-0.032411399,-0.025331978,-0.016220594,-0.030904587,0.111798843,-0.077442775,0.041901658,0.056654678,-0.125186941,0.06393784,-0.074736978,-0.036219662,-0.045450324,-0.008532948,-0.042023,-0.021373772,0.074206474,0.083698004,-0.022783957,0.196340756,0.159228969,0.045411669,0.071391509,-0.141792018,-0.105074084,0.110586053,-0.035239622,-0.065631259,-0.062955345,0.069585425,0.061196881,0.061860927,-0.011950072,0.072531491,0.025524798,0.071791475,0.076266815,0.036396806,0.036319999,0.00113012,-0.00846193,-0.062438818,0.058752647,0.099122666,-0.021469402,0.030194734,-0.071418652,0.117968904,-0.047838844,0.003320346,-0.032338346,-0.015193878,-0.044145535,0.024119127,0.031183273,-0.058003552,0.048413643,0.018264387,-0.006268914,-0.052251138,-0.047584069,-0.032264029,0.262208805,0.07967434,0.004122225,0.002421776,-0.031641013,0.03705807,-0.000479195,0.027033534,0.090675385,0.000805538,-0.000126791,-0.00084162,-0.000472173,-0.003473876,-0.002640511,0.105404427,-0.425969876,-0.554511384,-2.72E-08,2.38E-09,-7.15E-15,-1.84E-14
0.146966684,0.114370004,0.13284938,-0.002092103,0.039951145,-0.01094263,0.023794815,0.00660399,-0.035865149,0.01831734,0.054583659,-0.09250035,-0.003070817,-0.013515187,0.009077911,-0.050576832,0.053964256,0.028082726,-0.01607934,0.031242515,0.021078829,-0.094739347,-0.064537772,0.029338445,-0.043750294,0.1176094,0.028429117,-0.005436512,0.024097092,0.039651083,0.098162285,-0.063357174,0.139841205,-0.079781638,0.031745725,0.082971579,-0.105556453,-0.028793515,0.063811778,-0.047295171,-0.00624923,0.081357658,0.012756746,0.144981037,-0.006092748,0.107552666,0.03736461,-0.092593585,-0.011168509,-0.060136036,-0.18565834,0.074281207,0.010654667,0.032132805,-0.028227202,-0.036339454,0.019664777,0.152786621,0.012147319,0.03382784,-0.026282828,0.036716746,-0.074396389,-0.03406075,-0.195918262,0.091724797,-0.03333876,0.001229901,-0.13076969,-0.128085516,0.058077794,-0.183924168,0.065637866,-0.230095476,0.057005826,-0.041383273,-0.025664975,0.037467315,0.021133197,-0.016899267,-0.026719014,0.017794993,-0.082950237,0.018127113,0.017325057,0.133678902,0.173070566,0.01973552,-0.36502851,-0.41330155,-0.010752407,-0.020791397,0.114447127,0.050746303,0.044796854,0.179973238,0.316401266,0.011703166,-0.003247754,0.00045187,-0.002142988,0.001629449,-0.000425718,0.00097133,9.08E-05,-0.000262837,-4.22E-10,4.07E-11,1.42E-15,-1.97E-16
-0.108571528,0.042426025,-0.049398778,-0.087272855,-0.024798135,-0.023559278,0.005738334,0.208667389,0.156545902,-0.031603501,0.078880767,-0.180268323,-0.093789632,-0.118019278,-0.006214638,-0.034962914,0.131194968,-0.103195873,-0.191578873,-0.06119264,0.038937874,0.002482271,-0.180362318,0.142497778,0.280053018,0.070364614,-0.01374541,-0.124165457,-0.198838212,0.091616996,-0.104968466,0.051885792,-0.015232476,-0.123480819,-6.72E-07,-0.033685622,-0.011460513,-0.00503111,0.053866574,0.036672757,0.08430392,-0.069457006,0.037853478,0.037582391,3.12E-05,0.010619808,0.010369685,-0.016016678,0.009101326,-0.020782458,-0.03985576,0.098732816,0.003707058,-0.032000805,0.014037121,-0.031917566,0.007287302,-0.045725142,-0.058141124,0.02635298,-0.026742943,0.045229943,0.018044116,0.04068599,0.093667239,-0.035975951,-0.00213145,0.021349497,0.063249,0.124557076,-0.160563935,0.45103355,0.343504579,-0.310083361,0.06577566,-0.003024467,0.08174609,0.063350326,0.05228324,-0.037154112,-0.010046468,0.018280254,0.000355016,-0.006490843,-0.017939436,-0.010286087,0.007117856,-0.005415084,-0.007033217,0.01538389,0.010487916,0.01042996,0.008598859,0.055233636,0.010947445,0.023884482,0.030221061,0.000116298,0.000420303,0.001522961,0.000473506,-0.000129724,-0.000596777,-0.000313525,-1.76E-05,-4.69E-05,-2.35E-10,3.54E-11,-1.92E-15,7.78E-17
0.122886225,0.004013157,0.003658507,0.040958029,-0.008562549,-0.10111363,0.136954582,0.091303898,0.147688995,-0.046703082,-0.204952826,0.115265774,-0.039935349,0.122239346,0.040035556,-0.026762474,-0.051009697,-0.061536512,0.054151426,0.00335611,0.027617318,-0.114528811,-0.219591507,-0.013495954,0.272335836,0.066306793,-0.08454644,0.150038197,0.096440131,0.027248467,-0.155734387,-0.039766898,-0.189630561,0.06373544,0.062335856,0.086508083,0.090079496,-0.024846559,-0.128949102,-0.036058426,-0.159127293,0.04937038,-0.093651327,-0.084502021,-0.01835883,0.002892982,-0.052927695,-0.044937989,-0.031220724,-0.033507246,-0.082721138,-0.011120826,0.069794687,0.016422268,0.006700885,-0.089686176,-0.006439536,0.056990465,-0.038357647,0.002149399,-0.047770531,0.01897055,-0.082695179,0.061405488,-0.468250782,0.323523225,0.021652843,-0.224553961,0.104607215,0.088198763,0.087836232,0.179824795,-0.100072362,0.074149933,-0.057491774,0.005906066,0.030352757,0.033534416,-0.040084465,-0.001759911,0.012892882,-0.01281804,-0.014894498,0.008765966,-0.007606592,-0.018043167,0.005525908,-0.018453198,0.050644127,-0.016126882,-0.007985149,0.003422761,-0.00515341,-0.050133979,-0.007446135,-0.03182813,-0.027411173,-0.000909588,0.000516218,-9.25E-05,-0.000951178,-0.000121858,0.000154033,0.00024863,-2.28E-06,4.03E-05,-3.19E-11,-9.48E-12,9.51E-16,1.73E-16
0.001945251,-0.006222224,-0.013586838,-0.05299224,-0.045602333,-0.132783623,0.113307356,0.301014165,0.305445026,-0.087651531,-0.124890529,-0.070203085,-0.067029103,-0.059144249,-0.035224571,-0.003373416,-0.008392958,0.075144363,0.040632636,0.068677488,-0.020367041,-0.018423088,0.108240924,0.025656919,-0.172319317,0.047147697,-0.028073865,0.031795207,0.09126406,0.029827222,0.207611848,-0.211627391,0.181597763,0.04360038,-0.034737916,-0.082888459,-0.005677367,-0.006666232,0.048611978,0.039504197,-0.03075849,0.038703611,-0.052113015,-0.07140902,0.043056049,-0.095998652,-0.016115541,0.050699895,-0.053049428,0.060817342,0.082485969,-0.032963426,-0.008174573,0.05366071,-0.012029868,0.036847969,-0.001708152,-0.025640479,0.020504346,-0.008078673,0.014699116,-0.009758784,0.001391054,-0.008641805,-0.023876503,0.029964466,0.005613431,-0.018451945,0.03237108,0.015718425,0.032264232,0.016128375,0.041306508,0.01881795,0.5291843,0.301313898,-0.289656086,0.116983776,-0.13164888,-0.013073886,0.003550002,-0.009300756,0.004669596,-0.012357011,-0.002182693,-0.017675142,-0.022554896,0.01024548,0.033124621,0.016564814,-0.009336105,-0.008397108,0.003266883,-0.010875095,-0.004693383,-0.002064764,-0.012951761,-0.007127213,-0.000182418,0.000293944,-0.000304749,-0.000351954,-0.000242434,1.96E-05,-0.00010628,-4.89E-05,2.29E-10,-1.63E-11,3.09E-16,1.84E-16
0.154482163,0.068461309,0.109499522,0.099881507,0.02297946,-0.057204503,0.092321561,-0.026704616,-0.018443013,0.00400623,-0.036758185,0.05075395,-0.036309946,-0.034409455,-0.008903896,-0.006568958,0.039123396,0.011955098,-0.007253433,0.043319194,0.024073002,-0.101599085,-0.009076914,0.099712442,-0.096542217,0.044895575,0.025175818,0.022952785,-0.001214022,0.023198211,-0.132748419,0.124760974,-0.020431141,0.148544284,0.133126744,-0.017529413,0.133764839,0.01105595,-0.075700767,-0.019952449,-0.011204316,-0.027622185,-0.057037698,-0.07908753,-0.005045072,-0.081586373,-0.084022315,-0.025784893,-0.05321631,0.060164845,0.080670363,-0.090162036,0.003617472,0.016371343,0.006751284,0.021432302,-0.010517834,-0.047715224,-0.014073676,-0.032047639,-0.007296368,0.038839345,0.000213228,-0.001315218,0.017855149,-0.024356703,0.047226657,0.090668483,-0.023973949,-0.079619444,0.0466423,-0.034601937,-0.044488094,-0.051101066,0.213688229,-0.010245599,0.266793231,-0.054381454,0.17280966,-0.14491746,-0.095194732,0.282792888,-0.003952918,-0.102277007,0.020306789,0.020881128,-0.075813395,0.027505614,0.090211135,0.345312848,0.089530529,0.031955912,0.12229981,0.33708595,0.067345812,0.250094357,0.325998668,-0.005520723,-0.000259107,0.00053091,-0.00270124,0.000377935,-0.001280732,-0.002018924,-3.09E-05,-0.00027042,-4.99E-11,3.50E-11,-1.93E-15,-2.03E-16
0.150520068,0.053162936,0.10216034,0.099591268,0.012037773,-0.072175583,0.093366109,-0.045551955,0.001891956,-0.038933019,-0.051593972,0.103255135,-0.075536468,-0.038608933,-0.000907848,-0.012871813,0.069077935,-0.048025284,-0.045726637,0.013214554,0.024922863,-0.032171747,0.045396541,0.181372998,-0.111550769,0.053451045,0.046853233,-0.062998941,-0.117100238,0.010376202,-0.11992387,0.107615472,-0.019574849,0.193118439,0.004959656,-0.034861943,0.120507511,-0.011844089,-0.12756937,-0.008782718,-0.020529557,-0.06518781,-0.062868388,-0.138266579,-0.004568095,-0.003163527,-0.026189617,-0.010160261,-0.095971937,0.062198719,0.058849921,-0.072575487,0.024277816,0.072580172,-0.044687795,0.07340477,0.046537882,-0.020399618,0.027998377,0.006718924,-0.002618706,0.033884448,0.042452527,0.002197689,0.106230056,-0.061411277,-0.022020801,-0.005375984,0.021605644,0.052448994,-0.05106357,0.037617532,0.062868539,0.025001468,-0.051600588,-0.005311486,-0.083521244,0.013179982,-0.030011685,0.101421041,0.031241864,-0.178852534,0.015545028,0.123285721,0.002665583,0.086122372,0.051274354,0.030062621,-0.202487576,-0.102623731,-0.012750472,0.002288111,-0.007258751,-0.073703909,-0.006813851,-0.028454972,-0.064682322,0.00106746,0.001722247,-0.002708352,-0.001456854,0.001193244,-0.008344495,-0.486671609,0.356722912,-0.366742115,-2.23E-08,3.07E-08,-1.71E-14,7.32E-15
0.150530459,0.052984349,0.102095711,0.099677234,0.011906869,-0.072247342,0.093266259,-0.045856239,0.001976597,-0.039280959,-0.051508489,0.103429149,-0.075883962,-0.038961379,-0.001019062,-0.012551325,0.069023814,-0.048286608,-0.045791433,0.012946412,0.024837398,-0.031510226,0.045424371,0.181800733,-0.111308997,0.053099597,0.047208687,-0.063674411,-0.117501332,0.010324418,-0.11966519,0.107515394,-0.019242363,0.192521812,0.004693667,-0.034929939,0.120299693,-0.011715531,-0.126865093,-0.008501765,-0.020049006,-0.065107224,-0.062218758,-0.13854512,-0.004507288,-0.003134611,-0.026593342,-0.009428543,-0.095415702,0.062233328,0.058071498,-0.071983677,0.024175394,0.072928955,-0.044851217,0.072440559,0.045609972,-0.020277299,0.027021479,0.006565544,-0.003052721,0.034444343,0.042214334,0.002859655,0.10591213,-0.062445839,-0.021786097,-0.005372645,0.02169065,0.052013678,-0.050408307,0.038434428,0.0613584,0.026063115,-0.050146909,-0.005273371,-0.081559685,0.013151549,-0.029523802,0.101798315,0.030566736,-0.177526532,0.01556283,0.122476185,0.002622342,0.085949644,0.048745495,0.030238595,-0.202138994,-0.101173196,-0.011616073,0.003537143,-0.004815361,-0.074921133,-0.00691601,-0.028292433,-0.063299761,0.013434325,-0.0032099,0.004445795,0.003498154,-0.001085083,0.009999628,0.488639751,-0.356920739,0.367314713,2.22E-08,-3.07E-08,1.67E-14,-7.23E-15
0.136660767,0.083037275,0.160023393,0.055280989,0.016215664,-0.047170539,0.058816664,-0.061823052,-0.017205917,-0.021140863,0.046859694,-0.106276329,-0.048625056,-0.054614683,0.00057245,-0.045799579,0.036323735,0.061118643,-0.006287476,0.048678686,0.021829936,-0.156796644,-0.046348631,-0.026920474,-0.080466553,0.110522715,0.078373337,-0.019011275,-0.025187492,0.093038189,-0.097216019,0.144010569,0.111243929,0.044328172,0.233153118,0.042909141,0.025522032,-0.009027074,-0.016381002,0.024199971,-0.025569139,0.066366284,-0.06399242,0.035914145,0.004549164,-0.042625835,-0.050174927,0.037178252,-0.012332317,0.09826817,0.017374876,-0.081802087,-0.026674471,0.068472074,-0.027770452,0.029206769,-0.048499449,0.01019549,0.023567969,-0.030930513,0.011080017,-0.070614859,-0.051274237,-0.014538602,-0.01954841,-0.024254784,-0.079472401,0.011822546,-0.102575485,-0.083182978,-0.049652824,-0.104783465,0.117980174,-0.2269966,-0.112542198,-0.025034759,-0.120620811,0.053516811,-0.096659541,-0.122197039,0.013441509,0.207485807,-0.084018932,-0.236502197,-0.038562734,-0.198640102,0.001904026,-0.150468734,0.430393792,-0.227618007,-0.080018028,-0.024752783,-0.194125657,-0.089430948,-0.050888223,-0.196001135,-0.175691368,-0.003404328,0.000685086,-0.001118595,0.000825016,-4.05E-05,0.000279739,0.001696344,-0.000130516,0.000153123,1.16E-11,-1.28E-11,2.09E-15,1.37E-17
-0.105351666,0.061693537,-0.039832266,-0.079785396,-0.007265519,-0.038308851,0.00928123,0.241261025,0.128336165,-0.013061058,0.073481901,-0.168291149,-0.069798538,-0.146737935,-0.013657469,-0.017915099,0.153700728,-0.109061419,-0.205258879,-0.047392651,0.043329411,0.000684303,-0.125692386,0.202540517,0.191046562,0.091005121,-0.017637756,-0.086379829,-0.197021948,0.080466802,-0.141660362,0.06738513,-0.00576182,-0.052736135,0.027250453,-0.046884152,0.052860501,0.004432555,0.007935784,0.025255542,0.092571072,-0.058356174,0.019007088,-0.013172387,0.015201631,-0.053626888,-0.063645314,-0.028832296,-0.00757898,0.018880573,-0.000843029,0.023536784,-0.009095238,-0.084410342,0.045527675,-0.108577426,-0.084352131,-0.095659783,-0.142968122,-0.058198401,0.031782064,-0.108321915,0.016914882,-0.100896037,0.010127682,-0.002697697,-0.011045372,-0.015772661,-0.040623453,-0.123653391,0.116603197,-0.422042,-0.336203311,0.3129957,0.030898157,0.015305343,0.017951903,-0.089857777,0.032935796,0.011999514,-0.010782133,0.003453805,-0.013193595,0.032472328,0.033294392,0.096219061,0.022275974,0.015684712,0.063137679,-0.107199752,-0.014926838,-0.020623168,-0.02477967,-0.046608264,-0.012189048,-0.025901428,-0.027088747,-0.002648739,-0.0013452,-0.002350626,-0.000128172,0.000599149,0.000466939,-0.00080396,6.11E-05,1.34E-05,2.38E-10,-2.60E-11,2.25E-15,-1.16E-16
0.116245398,-0.031135247,-0.002265053,0.015012068,-0.022928371,-0.117293118,0.121655725,0.074573097,0.154541911,-0.087794541,-0.212742074,0.108409355,-0.03800023,0.147977563,0.046206086,-0.023739839,-0.080133596,-0.025283788,0.098298132,-0.006557614,0.017220709,-0.10578174,-0.224822116,-0.099874289,0.290112481,0.04998218,-0.095769704,0.144492757,0.10103393,0.044511623,-0.086167345,-0.141548113,-0.142681503,-0.032832708,0.013296613,0.121820815,-0.021798417,-0.031538676,-0.041341545,-0.036734199,-0.095884095,0.051625829,-0.047660728,0.005926565,-0.026814752,0.078146122,0.051946884,0.000268561,0.059821598,-0.09328068,-0.083334258,0.075621429,0.001592709,-0.069460759,0.020674979,0.023684256,0.004481548,0.03818963,0.018202126,0.017609533,0.03931987,-0.061947099,0.039049514,-0.056173716,0.401695939,-0.337480455,-0.061221758,0.174201021,-0.112863074,-0.090959579,-0.077783749,-0.247386923,0.067503062,-0.080390126,-0.059998212,-0.011153307,-0.152826162,0.004037957,-0.068857816,0.033181167,0.017254265,-0.022608136,0.010876086,-0.043113643,-0.00421358,-0.096040181,-0.0526115,0.006467813,-0.106118538,0.111338758,0.010035981,0.006538358,0.019147879,0.034009129,0.005885961,0.031663463,0.02123565,0.00554855,-0.001138802,0.000420316,0.000633236,-1.46E-06,-0.000308196,0.00066669,-4.13E-05,-2.33E-06,2.03E-10,-1.46E-11,8.85E-16,-1.47E-16
0.004910704,-0.003969413,-0.014391298,-0.050993542,-0.045958306,-0.135337266,0.11632105,0.299295531,0.305059696,-0.088238415,-0.123057536,-0.070799901,-0.075923649,-0.056386564,-0.037766486,-0.001749758,-0.007473849,0.07228511,0.038252244,0.064437765,-0.018098474,-0.011855344,0.112887735,0.014999273,-0.173813306,0.042511747,-0.029998698,0.029982577,0.091734866,0.025562947,0.2080209,-0.204112056,0.184080171,0.033525675,-0.042567417,-0.082192119,-0.014890422,-0.000610026,0.056858636,0.055254381,-0.026117346,0.035534194,-0.035767752,-0.066291417,0.044372216,-0.091061651,-0.013010741,0.032539336,-0.027299334,0.063430595,0.074129862,-0.01996927,0.007826934,0.030462704,0.020638827,0.011168632,-0.014692437,-0.00908328,0.045248829,-0.029712495,0.006495781,-0.030972845,0.007772716,0.001954824,0.028800074,-0.005955385,0.017818967,0.014563325,-0.014325746,-0.003931481,-0.024834882,0.043100037,-0.015598289,-0.017131811,-0.531005567,-0.300107393,0.301302368,-0.115504786,0.143580059,0.001234669,-0.008545825,0.019443241,0.003037084,0.00111389,-0.007883009,0.020781407,0.025705745,-0.008714382,-0.01463186,-0.019432792,0.008136639,0.009386656,-0.00368276,0.002837532,0.008136565,0.003536817,0.020496914,0.00608152,0.000946302,8.24E-05,0.0003177,0.00015901,0.000408195,0.000176345,0.000100436,6.03E-05,-2.84E-10,2.16E-11,-7.49E-16,-1.77E-16
0.149399691,-0.051787867,0.040465294,0.104759437,-0.032756912,-0.082106752,0.052174673,-0.149794292,0.027275645,-0.131193641,-0.098339224,0.129435691,-0.062564837,0.046141223,0.001802923,0.004512054,-0.039384023,0.027480967,0.057249762,0.000155035,-0.023336231,-0.025153446,-0.01844473,-0.118066429,0.086456001,-0.058054271,0.007920972,-0.011132591,0.00705237,0.0122995,0.009853425,-0.083528643,-0.016976414,-0.056569675,-0.067938589,0.013538924,-0.034013718,-0.004370184,0.05218313,0.021035605,-0.017752336,0.014698722,0.023790101,0.001758077,0.024305567,-0.020631348,0.04221306,0.053765982,0.036738741,-0.078669357,0.006237685,0.087499031,-0.033388419,-0.058022373,0.003723003,0.048841275,0.040157823,-0.063323197,-0.02416154,0.044939247,0.002388289,0.096105527,0.070959832,-0.033096351,0.139796753,-0.077727087,0.083621179,0.120661145,0.056202896,0.001044207,0.002132084,0.11658299,-0.021723376,0.108634901,0.271550177,0.063212286,0.336087285,-0.09762102,0.263496766,-0.086757738,-0.075919148,0.063384925,0.002121301,0.117316604,0.044844722,0.328020824,0.146732153,0.001192391,0.248679292,-0.40934716,-0.046804247,-0.03319925,-0.10612416,-0.055878775,-0.023826494,-0.093448981,-0.097759951,-0.022496037,0.00116924,-0.000428443,0.001525131,0.000969059,0.000293867,7.05E-05,0.000177785,-3.80E-05,3.10E-11,6.79E-11,-1.86E-15,-1.13E-16
0.119753667,-0.064075163,0.028342996,0.094292852,-0.04615179,-0.089558959,0.052637905,-0.146535725,0.047859753,-0.156502733,-0.125328235,0.214419949,-0.113209594,0.009442718,0.011617257,0.031170747,0.022633245,-0.107420998,-0.031363484,-0.071165124,-0.020517769,0.174250997,0.098063383,0.071283211,0.049627144,-0.049248914,0.075513966,-0.146737593,-0.155607757,-0.032333518,0.043625168,-0.083386369,0.011635342,-0.098144692,-0.227317695,-0.091276938,-0.045376751,-0.017308818,0.095174939,-0.029179822,0.111648307,-0.06004531,0.06767764,0.007848501,0.008245782,-0.003026838,-0.01593611,-0.086475632,-0.060520619,0.024720871,-0.046405684,0.048932896,0.036250887,0.014322178,0.02734537,-0.095616835,-0.00734174,-0.004657595,-0.025736915,-0.01878896,-0.017371011,-0.020162549,-0.048799974,-0.027441276,-0.074436127,0.072400032,-0.01119658,-0.00652639,-0.05621514,-0.058913308,0.016148045,-0.06968766,0.015597786,-0.07317224,-0.042489318,-0.016170964,-0.063137711,0.029165202,-0.039330367,-0.035771386,0.00675302,0.061947843,-0.025605413,-0.089115174,-0.021346551,-0.095630528,-0.029081909,-0.033929016,0.053430039,0.057328646,-0.006402908,-0.008859575,0.00138297,0.023635193,0.002464577,0.007753756,0.016926315,-1.18E-05,0.002440253,-0.0037105,-0.002761236,0.001559077,-0.008146418,-0.501342867,-0.437036266,0.240245582,6.41E-09,-3.41E-08,3.53E-14,7.90E-16
0.11969559,-0.064076359,0.028329914,0.094305147,-0.046182709,-0.08954069,0.052542657,-0.146593671,0.047870106,-0.156607362,-0.125078741,0.214303351,-0.113497403,0.008990891,0.011494311,0.031415391,0.022629181,-0.107596789,-0.031423256,-0.071324534,-0.020530596,0.174645006,0.097967679,0.071806427,0.049593866,-0.049411091,0.075774858,-0.147199244,-0.15583845,-0.032299394,0.043656411,-0.083173883,0.011985964,-0.098374591,-0.227177004,-0.091205918,-0.045414562,-0.01715503,0.095525865,-0.028869766,0.111895812,-0.059965873,0.068153531,0.007380226,0.008283242,-0.002871943,-0.016335335,-0.085627132,-0.059900461,0.024917445,-0.047106279,0.049292154,0.036114419,0.014708354,0.027160296,-0.096396652,-0.00829681,-0.004331935,-0.026471857,-0.019095616,-0.017836567,-0.019603119,-0.048911316,-0.026660294,-0.074607903,0.071058571,-0.0110903,-0.006469318,-0.05602369,-0.059017667,0.016735782,-0.068735035,0.014146309,-0.072041666,-0.041117525,-0.016012875,-0.061287233,0.029165393,-0.039064218,-0.035208944,0.006147514,0.062970299,-0.025542686,-0.089612753,-0.021100971,-0.095897694,-0.031758234,-0.033569237,0.053714833,0.058828485,-0.00513183,-0.007753321,0.004014766,0.022362083,0.002295299,0.007377848,0.017683946,0.010133093,-0.00221742,0.002097076,0.001136795,-0.002063654,0.007303811,0.500164611,0.437695248,-0.240751809,-6.52E-09,3.41E-08,-3.29E-14,-7.46E-16
0.132238406,-0.012273272,0.096972338,0.102342924,-0.031487198,-0.078217024,0.017231424,-0.178349697,0.020943624,-0.160132252,0.036496279,-0.069545784,-0.100827834,-0.074664086,-0.015648508,-0.01405194,0.012997065,0.090212656,0.01264204,0.019766939,-0.023900048,-0.107472705,-0.065336489,-0.186727151,0.051406875,0.013749409,0.078263516,-0.124237214,-0.034748582,0.132789614,-0.01726079,0.032704435,0.156373767,-0.149644773,0.146967826,-0.005820147,-0.066108848,0.001670209,0.123239352,0.142494506,0.009121699,0.076545312,0.00626686,0.073827375,0.062512495,-0.10721073,0.005131728,0.174955653,0.113355351,-0.002989045,0.032631551,0.060039787,-0.085507971,-0.073943686,0.007279203,0.017894274,-0.055408309,-0.008131882,-0.057351461,0.005263127,0.038053808,-0.024147972,0.039840684,0.041228345,-0.019868514,0.083281911,-0.007269797,-0.106406305,0.074444091,0.077072274,-0.014619512,0.039668823,-0.074695655,0.138910341,-0.041933286,-0.000199608,-0.06311467,-0.049122655,-0.085797428,0.100745642,0.046313142,-0.135239259,0.079010487,0.051581715,0.014783925,-0.015316555,-0.000603105,0.057005548,-0.223741276,0.121319189,-0.058193651,-0.005315016,-0.261066018,0.522751938,-0.012968157,-0.189270188,0.013584192,0.021904658,-0.002004064,-0.002554856,0.001880378,0.000821937,0.002795142,0.000593382,4.37E-05,4.54E-05,3.00E-10,-7.40E-12,-3.14E-16,1.22E-16
-0.007973535,0.101925244,-0.02763402,0.119412422,-0.182755157,-0.181380707,-0.225109317,-0.014936513,0.023689958,0.106849223,-0.014986391,-0.034751654,-0.023807898,0.039025156,-0.001659306,-0.025671205,-0.007833826,-0.006334186,-0.009583727,-0.009496461,0.000930661,-0.019558521,0.041003758,0.010637866,0.009708521,-0.013129026,-0.016770998,0.066721307,0.014900916,-0.06793403,0.0032402,-0.021144739,-0.045230247,0.071378857,0.047161846,0.068583661,-0.007226202,-0.408279084,0.137058236,0.130223291,0.122171357,-0.104940644,-0.07108889,-0.005543604,-0.153424042,-6.60E-05,-0.002973794,0.003417805,-0.027915362,0.033385672,-0.017253579,0.008170733,0.017817037,0.014490369,-0.002334392,0.057726415,-0.092397533,0.002686571,0.002759636,0.049857349,-0.010091822,0.021619659,-0.049434471,0.010435577,-0.009168608,0.011984294,-0.006031693,-0.025663831,-0.042534058,-0.023325644,-0.050854866,0.016482733,-0.018539864,0.013538596,0.001102132,0.003305141,-0.001864949,0.044528337,0.097223964,-0.072691757,-0.18217669,-0.306086803,0.045325873,-0.326336855,0.390342691,-0.002927927,0.003262895,0.049287717,0.008723703,-0.011224952,0.263371927,-0.220213131,-0.050862989,-0.011830729,0.034179059,-0.019951253,0.002546667,-0.007756798,0.002349167,0.000896079,-0.030381827,-0.000820647,-0.000245878,0.000252187,-6.23E-05,5.36E-05,2.06E-09,-1.19E-10,-1.05E-15,-3.87E-16
0.009206387,-0.103483916,0.009090635,-0.105226199,0.191323503,0.179831121,0.226223757,0.020084801,-0.02709425,-0.104897086,0.013099892,0.033795197,0.025106457,-0.033338301,0.004535014,0.031255197,0.00624471,0.012073979,0.015989618,0.010546764,-0.002879481,0.011384841,-0.038951052,-0.008145422,-0.004581491,0.02961211,0.044203144,-0.076168398,-0.017898009,0.061148101,-0.006302925,0.017852896,0.063380078,-0.07110689,-0.058054688,-0.047770545,0.014330792,0.45612908,-0.073616102,-0.034892268,-0.190774273,0.028350836,0.05668935,0.033910973,-0.137331989,-0.018421007,-0.00310848,0.009095815,-0.016008477,-0.01178399,-0.002629554,-0.020414842,0.116826186,-0.011873945,-0.018588341,0.02005965,-0.01165802,0.000289118,-0.001225203,-0.024582151,0.087381777,0.009251941,-0.005371995,-0.018732371,-0.009231569,0.015797948,-0.012449697,0.02558966,-0.087159343,0.019492157,-0.022751826,0.028352623,-0.024105297,0.01257308,0.004959511,0.005868431,0.010562952,0.043774882,0.084831281,-0.09748048,-0.175217798,-0.32737748,0.063069621,-0.364529328,0.423619925,0.002938618,0.014681215,0.056776802,0.018006555,0.004663107,-0.100009576,0.096912689,0.031778135,-0.004477396,-0.053872666,0.016803601,-0.003931613,0.004969395,-0.00085191,-0.000902785,-0.010570742,-0.001870446,-0.00024644,-0.000119237,-2.37E-05,1.76E-05,2.29E-09,-6.22E-12,-1.87E-15,-3.40E-16
0.009554165,-0.01528165,-0.231061607,0.191850671,0.056981556,-0.013936387,-0.027474157,0.057107512,-0.035769913,-0.002112876,0.007502028,0.010367472,0.001486998,0.015508209,-0.007682467,0.045235243,0.019072708,0.001994111,-0.001191041,0.003766657,-0.003669207,-0.051985052,0.011808909,-0.012815278,0.017812484,0.057831097,0.087588916,0.0010369,-0.017677158,-0.031272674,-0.010393797,-0.022062111,0.119242435,-0.011207834,-0.074716027,0.169390543,0.133833711,0.174703094,0.217465829,0.283914129,-0.184949393,-0.206331832,-0.054848421,0.073809449,-0.655837411,-0.039997877,-0.008707654,0.00934768,-0.088817551,0.024397038,-0.044148243,0.000740474,0.130429397,0.003012944,-0.040524817,0.105174307,-0.115461334,-0.01447049,-0.0141102,0.005512711,0.051443186,0.02759987,-0.037760429,0.004286402,0.002929695,0.008405602,-0.00781697,0.008779965,-0.033732411,-0.005043716,0.007092718,-0.009388654,-0.003191046,0.006102362,-0.003629544,0.013133397,0.000882994,-0.004128488,-0.024562632,0.023987188,0.048851845,0.115307375,-0.028901214,0.150826877,-0.181297079,-0.008492341,-0.004123301,-0.02442516,-0.010316822,-0.008358174,0.0402933,-0.038964259,-0.013640231,0.005746199,0.029220954,-0.009437545,0.002159552,-0.002269447,9.39E-05,0.000385017,0.022021197,0.00241186,0.000164361,-8.87E-05,2.98E-05,-1.57E-05,-6.06E-10,-5.97E-12,9.71E-17,2.51E-16
0.016490222,-0.112345618,0.01316949,-0.101629349,0.186410475,0.191261535,0.233963397,0.008826459,-0.031013871,-0.1265819,0.025682455,0.01304478,0.015382433,-0.057840559,-0.014781729,0.020619288,0.017150744,0.018153112,-0.012277543,0.010199216,-0.002216178,-0.003666904,0.001067362,-0.022156179,0.011580685,-0.015254382,-0.049091759,-0.006799173,0.004108348,0.00192125,0.001090146,0.003254908,-0.002533461,-0.001336754,-0.030620739,-0.033116653,-0.000567424,0.11466923,-0.052334635,-0.075358436,-0.04214005,0.01294107,0.024004806,-0.008802946,0.063032282,0.016778187,-0.058406583,-0.071165013,-0.063902231,0.00770915,-0.02470651,0.080223708,-0.222655176,0.035587872,0.059531816,0.113564027,-0.133669353,0.002751489,-0.016543232,0.033416647,-0.06439935,0.007575433,-0.022182106,0.027442328,0.006737776,0.005889413,-0.005135765,-0.028564565,0.040499134,-0.036025444,-0.012666497,-0.007976858,0.015464646,-0.003031042,-0.015308384,0.00337765,-0.016928159,0.007410312,-0.009591986,0.026821098,-0.011168461,0.04191381,-0.010742284,0.057917363,-0.065476677,-0.016745009,-0.011505543,-0.002809332,-0.00971033,-0.022343353,0.59389964,-0.518556856,-0.13751267,-0.012078339,0.141279119,-0.057630159,0.007299642,-0.021466692,0.004409045,0.002859589,-0.034130791,0.001839784,0.000208109,0.000635502,-8.85E-05,8.10E-05,-4.07E-10,-1.69E-10,1.17E-15,-1.30E-16
0.00871369,-0.093933259,0.010314104,-0.103140578,0.195126883,0.181942061,0.233714175,-0.000186155,-0.017346238,-0.130140794,0.029898744,0.044365526,0.036816841,-0.094415622,-0.025781201,0.039037522,0.026183794,0.012327347,-0.023145822,0.013799313,-0.011705339,0.01344139,-0.019087628,-0.027134907,0.003582826,0.008379046,0.004891615,0.030161496,-0.019083701,-0.047399574,0.027357937,-0.003898475,-0.038961331,0.049821901,0.064632477,0.043039605,-0.031142291,-0.309950058,0.090533268,0.089795685,0.119027457,-0.005379473,-0.063002993,0.004021922,-0.04306116,-0.00596986,0.067781502,0.084967112,0.091541375,0.007455247,0.028315943,-0.111480077,0.283674872,-0.042465821,-0.054617922,-0.139276328,0.158934771,0.000350505,0.008841661,-0.039972317,0.066293649,0.02045042,0.017149162,-0.018329818,-0.009407798,-0.011618672,0.005852617,0.007091298,0.003830232,0.015433582,0.007677338,-0.009271723,0.003260752,-0.005165834,0.008413659,-0.004621723,0.005308735,-0.004361372,-0.004998495,0.006858503,0.004350033,-0.000241433,-0.013585911,-0.003411833,0.006358372,0.008259304,-0.001217618,-0.001915027,0.003376161,-0.001746613,0.041425148,-0.037854046,-0.005708975,-0.002111518,0.020217062,-0.002741792,0.002732686,-0.007107684,0.01227858,-0.011974458,0.700925421,0.064426017,-0.002044395,-0.002607734,0.000211975,-0.000422533,-1.18E-09,2.85E-10,-3.83E-15,1.78E-17
0.009326228,-0.094959454,0.000714042,-0.094863219,0.199278795,0.182073922,0.233720995,0.001827522,-0.019379291,-0.132168375,0.031197691,0.041164458,0.03466676,-0.09347219,-0.021088545,0.043355303,0.027139577,0.012613957,-0.024478613,0.014011924,-0.012108473,0.010469637,-0.016404065,-0.026447474,0.004482619,0.01221527,0.015401936,0.039787656,-0.02201137,-0.053003626,0.024761894,-0.006590528,-0.029825433,0.047441942,0.060991183,0.056802575,-0.023470133,-0.306458782,0.096306366,0.095208367,0.115163443,-0.009337386,-0.063637002,0.007538466,-0.055405616,-0.00619158,0.067327273,0.086287083,0.088471791,0.008895266,0.027195484,-0.111584615,0.275934438,-0.037798138,-0.059849679,-0.142310316,0.166076335,0.001157581,0.006853691,-0.036823912,0.057206929,0.009456433,0.008729743,-0.018968792,-0.001941555,-0.0112233,-0.001693212,0.003486584,-0.020538107,0.001915147,-0.005721404,0.007064404,-0.010335203,0.002657593,0.007415987,0.003823253,0.005511604,0.002398484,0.006832368,0.001854636,0.007784711,0.015820836,-0.010606457,0.031414815,-0.02451594,-0.002047899,-0.005228966,-0.001309579,-0.002058743,-0.000920057,-0.001430947,0.000894841,-0.003401673,9.26E-05,-0.015203188,-0.001151391,-0.002140025,0.007553903,-0.01198673,0.012041174,-0.703103737,-0.064155419,0.002254303,0.002671035,-0.000209548,0.00042408,9.03E-10,-2.93E-10,2.61E-15,-1.59E-16
0.021552808,-0.110806311,-0.064727824,-0.028855259,0.188278461,0.182731962,0.208852635,0.014296814,-0.041035555,-0.133857706,0.040633797,0.018207591,0.00780382,-0.083730801,-0.048694328,0.028387297,0.033110188,0.015159175,-0.044556484,0.004327711,-0.005180055,-0.031252954,0.048049106,-0.029578224,0.035806742,-0.026296667,-0.061247223,0.08660495,0.018018424,-0.090510389,-0.003716957,-0.023394518,-0.027889685,0.07208328,0.002844539,0.068249882,0.025972966,-0.300499529,0.088871306,0.05008877,0.0756602,-0.093898855,-0.049182941,-0.017468259,-0.037374875,0.023748639,-0.100200331,-0.11754041,-0.134011425,0.038799784,-0.047338946,0.177349876,-0.456182436,0.077819105,0.090717188,0.228518256,-0.312009897,-0.000893452,-0.006340302,0.11198359,-0.156582127,-0.011425429,-0.051734931,0.045738213,0.014499136,0.020958048,0.006706527,-0.041272712,0.029234407,-0.037140776,-0.0182413,-0.002268268,-0.00158318,0.008110791,-0.00492652,-0.009586572,-0.003376645,-0.008141951,0.00717974,-0.012217145,-0.005476566,-0.028687657,0.02545069,-0.041455512,0.045794851,0.004220613,0.010596713,-0.000656134,0.002335993,0.00794477,-0.303239018,0.268501508,0.070620239,0.006341381,-0.066069878,0.0276829,-0.003227502,0.008884336,-0.001367335,-0.001404628,0.02121031,-0.000993484,-0.000430307,-0.000432738,5.40E-05,-5.03E-05,4.49E-10,7.63E-11,8.57E-16,2.46E-16
-0.024639579,0.128694437,-0.063839099,0.075020728,-0.0089419,-0.068241842,-0.008779588,-0.107571233,0.104362906,-0.018527868,-0.01275231,0.030766253,0.132379967,-0.265830172,0.101135937,0.048129034,0.068824198,0.057925824,0.103165417,0.15974017,-0.054708559,0.318446086,-0.26120476,-0.156805402,-0.03329749,0.211081981,-0.087675092,-0.016150417,-0.281626135,-0.257833165,0.238860036,-0.029307139,-0.167250647,0.174065137,0.196255723,0.092756194,0.065418566,0.046279604,-0.017752167,0.047007834,-0.047778819,0.057695461,0.162607783,0.062793792,0.050555084,-0.121173657,-0.081339742,-0.055398447,-0.131052603,-0.146918537,0.116133712,0.151135141,0.001847218,-0.018254991,-0.05044452,0.062983689,0.005667425,0.033849411,0.045143691,-0.00930753,0.009361251,-0.080891923,0.047853076,-0.032755372,-0.056185428,-0.009016634,-0.024406406,0.09885957,-0.127079809,0.132058984,0.06637592,0.000424563,-0.011889115,-0.027310483,-0.049618294,0.116078351,0.029470052,0.00294071,0.010053239,-0.000580551,0.023951647,-0.020358224,-0.027671611,-0.016247824,-0.023245118,-0.001809369,-0.01092352,-0.002526206,-0.007237727,0.001178571,0.005458661,-0.013378433,0.000102055,0.003466921,0.00053559,0.003853283,0.000366944,0.001978657,-0.001141853,1.40E-05,-0.000134509,-2.56E-05,0.000187481,0.000176543,6.54E-06,3.41E-06,-1.48E-10,4.23E-13,-5.97E-16,5.81E-17
0.099468971,-0.095276818,-0.018010519,-0.04200995,-0.047294194,-0.037477308,0.085418452,-0.004060936,0.136413515,0.081411552,0.209452197,0.061997205,0.16311578,0.261282104,0.072550473,-0.057926759,0.005022744,-0.063954298,0.067306841,-0.022598653,0.047039936,-0.006105048,-0.086682554,-0.104083742,-0.041404081,0.077542723,-0.036127296,0.094922185,-0.273563138,-0.029192628,0.121403604,0.012828,0.046315725,0.136787622,0.148044616,0.135595272,-0.228350199,0.194544526,0.088998345,-0.099466688,0.150210054,-0.315408669,-0.057764374,-0.210336634,0.03493912,-0.107999042,0.228732932,0.054264096,0.050452546,0.159669591,-0.045430688,0.033287181,-0.038543932,0.054412392,0.04674522,-0.110752056,-0.057771624,0.008135483,-0.047104494,-0.002388356,-0.043377918,0.054411817,-0.066091905,0.04541456,0.0197597,0.046624276,-0.011055998,-0.010393454,8.92E-05,0.023072749,-0.026367054,0.003458953,0.025902927,0.076407336,0.136380346,-0.337601839,-0.120852401,-0.04440453,0.002757369,-0.021634652,-0.071118811,0.051297832,0.089563405,0.039603397,0.028129069,-0.001518091,0.02885267,0.003064348,0.008920446,0.001108886,-0.000528463,0.00448199,0.000166546,-0.012083839,0.001917881,-0.004817816,-0.006099445,-0.002662948,0.000524571,0.000452919,-0.000220006,0.000544529,-0.000221646,-0.000143203,-1.26E-05,-2.56E-05,-1.20E-10,-1.10E-11,3.41E-16,-4.85E-17
0.084714512,-0.034453875,-0.093507442,0.043313895,-0.086855821,-0.07141706,0.054988117,-0.081961364,0.1959473,0.060422986,0.23980526,0.029560353,0.167629784,-0.080640097,0.041753766,0.061760567,0.047060871,0.172249247,0.047832567,0.182431531,-0.064593645,0.202904901,-0.285781513,-0.057911223,-0.071043309,0.127334835,0.053428708,-0.062752578,0.080711251,-0.066743051,-0.040475936,0.062858653,0.00620598,-0.069914648,-0.207322416,-0.114421755,0.065437108,-0.008833348,-0.016134632,-0.059135877,0.028451256,0.03582073,-0.148143788,-0.051176499,-0.037386926,0.122006339,0.005416426,-0.041818976,0.085003638,0.118889633,-0.133564835,-0.189847193,-0.00443339,-0.065222741,0.04837777,0.026699684,0.005885021,-0.011985968,-0.026785398,0.036652093,-0.012328944,0.083483033,-0.059999751,0.013603194,0.087298505,-0.021089622,0.000354622,-0.223805261,0.311995234,-0.3734276,-0.127976263,-0.015373005,-0.004607181,-0.043531814,-0.081923867,0.161198947,0.040931618,0.025985655,-0.024495898,-0.049851549,0.00746333,0.024696776,0.089680451,0.004805412,0.038928801,0.048610448,-0.020484588,0.010894789,-0.006275303,-0.004428648,-0.004913163,0.033855659,0.003921783,-0.003848094,-0.001399751,-0.003658856,0.004495336,-0.000266307,0.002539548,-0.000416093,0.000708141,-0.000374969,-0.000142182,-0.000137703,2.50E-05,7.88E-06,5.90E-10,-2.34E-11,5.01E-16,-7.16E-17
0.110545856,-0.136922396,-0.001318546,-0.025252176,-0.051987074,-0.024285914,0.058093942,-0.00451469,0.107329649,0.007034273,0.260480525,0.016091531,0.089218374,0.243149526,-0.024040744,-0.063781157,0.017627145,-0.048595368,-0.073094046,-0.082920516,0.042484327,-0.11131909,0.092463089,-0.023249132,-0.008221181,-0.025066724,-0.042913928,0.05548965,-0.052500225,0.049881648,0.015168608,0.020825938,0.039804369,0.03915087,0.037957569,0.032652955,-0.090996021,0.043121322,0.041301817,-0.019078918,0.047223753,-0.137657962,-0.005471458,-0.110071565,0.039226596,-0.056196851,0.08710214,-0.016570046,-0.039388307,-0.012107532,-0.001313608,0.031900732,-0.001609927,-0.040650605,-0.003125974,0.043077244,0.016747818,-0.02592564,-0.018322523,-0.002995676,-0.004445545,-0.017925898,0.09561375,-0.058599156,-0.096690575,-0.07818453,0.015488098,0.067564229,-0.041912655,0.033586879,0.070631566,-0.026593866,-0.070733731,-0.109045099,-0.204579398,0.589957584,0.24938108,0.096564362,0.056024378,0.115714826,0.133992134,-0.14259889,-0.292693649,-0.105272006,-0.088207343,-0.039329979,-0.07164062,-0.022152052,-0.026517108,0.009379851,-0.016642524,-0.01411222,-0.002484172,0.034670629,-0.003052484,0.005245432,0.011227859,0.01002522,-0.002869165,-0.000176023,0.000578706,-0.000514553,1.13E-05,-0.000225144,1.65E-05,3.60E-05,1.60E-10,9.88E-12,-9.88E-16,1.56E-16
0.10174358,-0.106525257,-0.011701815,-0.019328006,-0.061990849,-0.041216295,0.054189827,-0.006833699,0.14961862,-0.016182044,0.274990548,0.06283143,0.110074146,0.221647398,-0.02571961,-0.044338847,0.023076533,-0.113537715,-0.165292075,-0.137859082,0.03867291,-0.027936528,0.200368112,0.072813536,0.026694446,-0.073345579,-0.011099192,0.023417142,-0.023755059,-0.030904027,0.039242736,-0.00593387,-0.056316674,0.056108981,0.123398732,0.022996064,0.030607067,-0.027506288,0.000579219,0.092281137,-0.106738146,0.153796793,0.054646631,0.231044294,0.034076306,-0.111073252,-0.197644644,0.007270114,-0.113817269,-0.189705359,0.037647759,0.046537362,0.088882254,-0.014796038,0.034161261,0.078886186,0.067916431,0.014753697,0.053645051,-0.002726233,0.056054364,-0.085778688,0.023360099,-0.062046502,0.051311047,0.054230348,-0.006358733,-0.061285016,0.054360443,-0.038060131,-0.001360106,0.000738863,0.021237441,-0.054300382,-0.118117858,0.069547926,-0.089907089,-0.026028801,-0.157251114,-0.226900374,-0.029250633,0.177866246,0.45686716,0.084004462,0.112441983,0.161631789,0.020757454,0.083068764,-0.006924976,-0.00092472,0.039379098,0.027304447,0.007929336,-0.025650948,0.013148434,0.000973476,-0.00212778,-0.017918819,0.00129307,0.000873369,-0.000266987,-0.001878604,0.000619863,0.00101121,6.07E-06,7.11E-06,3.20E-10,-3.24E-11,-8.84E-16,-1.18E-16
0.105028197,-0.099494139,-0.033758916,0.002550397,-0.079704164,-0.056840181,0.046733604,-0.0312257,0.19436676,-0.023919128,0.307991011,0.054571212,0.14081763,0.1064485,-0.022419188,0.007790177,0.035259906,-0.035745367,-0.121450164,-0.0564627,-0.004638117,0.064188398,0.080352415,0.080137633,-0.016362941,-0.018958108,0.028535289,-0.020050318,0.068295985,-0.051007147,-0.006998449,-0.008351105,-0.075274372,-0.02298661,0.033824806,-0.043022935,0.131631987,-0.056337085,-0.036812928,0.073111674,-0.132635275,0.23918347,0.078308461,0.144474228,-0.030438861,-0.03160704,-0.173746499,0.017286467,0.002087627,-0.096841883,0.031948384,0.047269618,0.017350211,0.010323321,-0.064957026,-0.030533858,0.005475452,0.094422695,0.049754456,-0.042294587,-0.05494595,-0.002987211,-0.064723848,0.123949165,0.01920926,-0.087563762,0.000782911,-0.005554192,0.051348531,-0.087625384,-0.03531934,0.03906878,0.013192634,0.123694468,0.22333554,-0.342084751,-0.018287239,-0.002788815,0.153836656,0.228505054,-0.024024499,-0.135179404,-0.423497048,-0.06426177,-0.079408834,-0.162304033,0.009077814,-0.092229219,0.015299118,0.000751166,-0.033329555,-0.024765095,-0.002322537,0.018773621,-0.013485245,0.000698177,-0.004920082,0.010470548,0.000273019,-0.002120619,-0.000150322,0.002463869,-0.000591038,-0.000763195,4.83E-05,-3.38E-05,-3.43E-10,3.76E-11,1.12E-15,4.42E-17
0.113807143,-0.104179247,-0.056748706,0.026801083,-0.081505248,-0.040299267,0.038035449,-0.046313444,0.142043133,0.010070773,0.282500561,0.004749934,0.08854151,-0.000105238,-0.04997298,0.051870975,0.035576445,0.123638831,-0.037472207,0.063328739,-0.040412758,0.026518139,-0.11632155,-0.008509228,-0.04086045,0.035287516,0.06588303,-0.043527083,0.238080047,0.014331136,-0.125265858,-0.003259069,-0.025265381,-0.15898245,-0.14034075,-0.120072111,0.159588568,-0.1115919,-0.059342375,-0.032514607,0.046919102,0.031091464,-0.001169185,-0.164302106,-0.052510366,0.194007999,0.053693777,-0.055152549,0.047133252,0.115188529,0.027800518,-0.0012262,-0.069619713,-0.007817375,-0.017429555,-0.018292651,-0.064047828,-0.08405356,-0.019508295,0.055850649,0.089042677,-0.059756972,0.118556671,-0.07780392,-0.083112988,0.097284264,0.004451893,0.247411045,-0.40331136,0.426961929,0.1267551,-0.002338193,0.007443724,-0.006779895,0.013461538,-0.077104814,-0.062403134,-0.051955529,-0.037223569,-0.082798097,-0.016092442,0.028667376,0.115417762,0.052487824,-0.009038665,-0.002876485,0.037654773,0.029483949,0.004276123,-0.001838858,0.017937597,-0.027142607,-0.006318795,-0.008814819,0.006829182,0.002639377,-0.003836145,-0.00356913,-0.002130063,0.001886374,-0.001043245,-0.000175874,0.000337505,0.00054422,-6.66E-05,4.14E-06,-4.47E-10,1.78E-11,7.60E-16,1.35E-17
-0.002272653,0.083857102,-0.027533554,0.100052778,-0.263009661,0.148044872,0.083796008,0.086589978,-0.093584492,-0.142798168,0.028760399,-0.006939718,0.039896716,-0.015400226,0.002665073,0.010289018,-0.006822308,-0.005193281,0.009566979,0.001666703,0.013025457,-0.008620216,0.00267303,-0.011499968,0.002597211,0.037538408,0.173404077,0.141823037,-0.014991674,0.286826283,0.238359209,0.099756306,-0.220115041,0.029728245,-0.058414502,-0.02514929,-0.007002229,0.004155569,-0.009523149,0.045627336,0.03507273,-0.018424118,0.000651595,0.000715521,0.056595951,0.055347876,-0.039545835,-0.027153319,-0.00559313,0.000454429,-0.026082692,-0.010883774,0.038701112,-0.000516201,0.002610186,0.067570415,-0.112677013,0.009394136,-0.01231906,-0.049983051,0.177202765,0.078957663,-0.081349691,0.006749514,0.004398618,-0.015394362,-0.013534113,0.002771881,-0.068710979,-0.030649389,-0.030425344,0.058191399,-0.067837199,0.046405787,0.018785223,-0.063838121,-0.063315264,0.200227214,0.224515222,-0.006362119,0.513178705,0.084623092,0.068737743,-0.050675989,0.084919265,0.019335598,0.053783188,0.029450905,-0.017305284,0.002527689,0.077615422,-0.022961054,0.017509316,0.017773489,-0.31190324,0.022704053,0.005565066,-0.002506365,-0.001329997,0.00133556,0.007719046,-0.01162329,0.000110336,-6.00E-05,-7.75E-06,-9.02E-06,3.77E-10,-3.51E-11,-1.33E-15,-2.59E-16
0.003577799,-0.087738243,0.00252943,-0.079404492,0.275079848,-0.148541908,-0.082331111,-0.078668314,0.090916806,0.142951957,-0.026684758,0.003781161,-0.039688619,0.023011725,0.00286471,-0.005205604,0.003084634,0.006502259,-0.004213201,-0.006484701,-0.015056437,-0.004925519,-0.005062001,0.004953036,-0.003141548,-0.029081391,-0.159421129,-0.149145505,0.003525034,-0.261470878,-0.22503125,-0.09413887,0.208928163,-0.024840559,0.070219018,-0.002470974,-0.004355975,-0.005666585,-0.001231581,-0.004236334,-0.057763834,0.001885574,-0.002735649,0.032618058,0.097672483,0.009761369,0.073342133,-0.032941843,0.016139965,-0.009661149,0.010965451,-0.015097714,0.194435097,-0.001839086,-0.018160808,0.047699716,-0.186548354,-0.040516897,0.056072712,0.113834413,-0.125584863,0.010541552,0.018123138,0.006303541,0.005211544,-0.001471965,0.006994121,0.03504873,-0.048452678,-0.026330929,-0.03736164,0.052436588,-0.085226908,0.043987965,0.034034138,-0.068977066,-0.062470283,0.178348266,0.214557456,-0.003265548,0.569100004,0.087884901,0.076631039,-0.088382238,0.121725612,0.022155024,0.043011279,0.033537554,-0.015496034,0.007001787,-0.006175758,-0.002179577,-0.010584204,-0.013230014,0.131829511,-0.011983422,-0.004325864,0.008307131,-0.000438953,-0.000269394,-0.001369081,-0.006553988,0.000527355,-5.45E-05,4.64E-05,3.91E-05,1.57E-11,-1.10E-10,-1.82E-15,-1.30E-16
0.008934086,-0.018746938,-0.241323913,0.193563376,0.058060019,0.010542545,-0.003908566,0.069099728,-0.042069181,-0.012659174,0.013037005,0.029403737,-0.001516744,0.013786661,-0.021362649,0.030271354,0.012228058,-0.007542459,-0.005396188,-0.009967483,-0.00363653,-0.071367983,0.017883582,-0.045618352,0.001367103,0.032257246,0.056564797,0.012124361,-0.039775394,0.02803226,-0.01730355,0.021704264,0.06074414,0.020726062,-0.019174782,0.051915136,0.077538356,0.030033557,0.047152487,0.146369533,-0.049095403,-0.068783098,-0.020136864,0.081743872,0.534492973,0.178805745,0.077853848,-0.152961556,0.016653863,-0.017535218,0.009471531,-0.034371041,0.390010496,-0.023664683,-0.027075903,0.155333136,-0.402552705,-0.037302431,0.067338485,0.057246578,0.080495785,0.082839889,-0.064796169,0.021620499,0.001824636,-0.002021867,0.002786833,0.013442803,-0.017624428,-0.014880851,-0.015183369,0.009363441,-0.016832439,-0.0086169,0.005959048,0.008870159,0.001060258,-0.054160234,-0.06697006,0.002669848,-0.279912377,-0.044186058,-0.042117172,0.049678808,-0.091392913,-0.02895349,-0.025194729,-0.031002916,0.008010459,-0.007509928,-0.001397615,0.005048676,0.007913378,0.0060664,-0.054557377,0.007058815,0.004397278,-0.007671718,0.000186887,-0.000320144,-0.001649922,0.0181649,-0.00085978,-4.33E-06,-5.72E-05,-6.23E-05,-1.08E-10,3.42E-11,1.95E-16,-8.27E-18
0.008571607,-0.088689469,0.009256994,-0.080606465,0.287303246,-0.161485465,-0.094582814,-0.097416364,0.101970677,0.139357342,-0.019012217,-0.011388558,-0.052709797,-0.001028295,-0.0071113,-0.000531085,0.012582803,0.01591316,-0.020835163,0.000717897,-0.005374975,-0.01153854,0.011761455,0.001276525,0.003390421,-0.027665342,-0.099311067,-0.04699206,0.002419241,-0.116356981,-0.087445284,-0.043563179,0.05905963,0.008678353,0.014147627,-0.002030872,-0.017105068,-0.020667943,0.008917211,-0.02513946,-0.011049519,-0.005303186,0.000794883,-0.006970263,-0.017576745,-0.013751028,-0.021034091,-0.008987371,-0.023020092,0.011735106,-0.010858551,0.021685128,-0.096692858,0.006526348,0.023626911,-0.004927034,0.048487572,0.034975106,-0.041746087,-0.137287526,0.251194133,0.075350793,-0.088972908,-0.000878119,-0.01365753,-0.019265308,0.001810681,-0.008809368,-0.002451897,0.008019996,-0.006839926,0.004830534,0.020368281,-0.001833794,-0.024072249,0.020248046,-0.005281231,0.010172646,-0.000759657,-0.01167139,-0.091554821,0.003620464,-0.01271021,0.05903543,-0.051822042,-0.011222196,0.026293334,-0.003735066,-0.00190926,-0.006451506,0.150456578,-0.038953106,0.047311022,0.056171642,-0.785542168,0.063195008,0.015821332,-0.019557475,-0.002645104,0.002115377,0.016321798,-0.00998989,-0.00042291,-5.47E-05,-0.000100698,-7.09E-05,5.05E-10,1.59E-10,7.61E-16,-2.70E-16
0.001588209,-0.061410994,0.008468574,-0.086598889,0.276134761,-0.145057224,-0.089539167,-0.107291304,0.122386174,0.151693112,-0.017215401,0.021159637,-0.077297854,-0.034645192,-0.036856492,0.031990671,0.040216825,0.013715681,-0.049742659,0.017967074,-0.006331196,-0.020556843,0.015966366,-0.019996621,0.035349599,0.009453808,0.177189709,0.105422905,0.000179334,0.253234158,0.233098207,0.094644466,-0.171611993,0.020854645,-0.03860702,-0.027481102,0.01624144,0.021807042,-0.015288971,0.015968259,0.03157617,0.015710349,0.005842531,-0.004248639,-0.050741259,0.002499108,0.004479965,0.015252778,0.022653744,-0.005934664,0.00254188,-0.015246669,0.059841365,-0.008478891,-0.013037177,0.013964457,-0.035357352,-0.038964406,0.028170111,0.136972621,-0.259144193,-0.064089215,0.094194878,-0.000485495,0.005976742,0.015061975,0.001446762,0.003962501,0.015649463,-0.000581013,0.020204656,-0.027396903,0.000333803,-0.01132371,0.005406253,-0.011058184,0.004303839,-0.010779703,-0.019409595,0.001438221,0.002162669,0.004078598,0.003985153,-0.005563054,0.007676871,0.000608889,0.000129531,-0.003690899,-0.001159763,0.004161382,0.010711756,0.000360985,0.00513589,0.000305662,-0.038940381,0.002499498,-0.002069228,0.009183367,0.003325455,0.005355727,-0.064092903,0.70103818,-0.042246492,0.003481355,-0.001814957,-0.002944579,-3.38E-09,-1.94E-10,-5.24E-15,-8.19E-15
0.002050513,-0.062134679,0.000600979,-0.079960724,0.279356464,-0.145178032,-0.089820719,-0.105543884,0.120841446,0.150554889,-0.016100589,0.019308813,-0.078894808,-0.03390519,-0.033820918,0.035233453,0.040445753,0.013848984,-0.050600115,0.018010157,-0.006861284,-0.023245711,0.017785167,-0.019888275,0.035676477,0.012124239,0.185412748,0.112622092,-0.002878731,0.250483365,0.230816218,0.093852986,-0.165971714,0.019330616,-0.039931713,-0.020378379,0.02116014,0.023374854,-0.015073476,0.01762899,0.029994169,0.015203114,0.005827859,-0.001828377,-0.03328676,0.007362718,0.005318965,0.013175591,0.022655186,-0.00464268,0.001613444,-0.016794268,0.061904831,-0.00551762,-0.01827844,0.010731641,-0.032978287,-0.035529454,0.026719101,0.139378874,-0.260692136,-0.070278844,0.084370012,0.000795469,0.010996004,0.01679095,-0.004893094,0.000779162,-0.00702234,-0.01297498,0.006990629,-0.012540247,-0.011061998,-0.001772535,0.003320099,-0.004161345,0.00302469,-0.00497059,-0.011765222,-0.003091919,-0.02695874,-0.002391029,0.003702595,0.009417026,-0.000469984,-0.011911892,-0.008460413,-0.005794588,-0.001248428,-0.001324708,0.005448382,-0.008578072,-0.00233479,0.002268158,-0.014742898,0.007619751,0.00129855,-0.009680698,-0.002308443,-0.005310272,0.065881681,-0.702738197,0.042397638,-0.003536169,0.001826337,0.002942212,3.53E-09,1.85E-10,5.06E-15,8.23E-15
0.009755831,-0.080197815,-0.070783167,-0.014918949,0.292188378,-0.152364552,-0.102103766,-0.076113134,0.089709877,0.127532616,-0.003141801,0.017662717,-0.06162358,-0.031820391,-0.0409728,0.031838211,0.033813309,0.011911773,-0.042553194,0.004576743,0.002386252,-0.035979311,0.018911427,-0.019939325,0.0103608,0.000323759,0.061426115,0.095026319,-0.013529497,0.102749526,0.092935598,0.038869931,-0.097521141,0.032922086,-0.044180964,0.01476771,0.001852322,-0.022418502,0.014085116,0.025830055,0.005071161,-0.033691046,-0.005070715,-0.0046604,0.087765848,0.045404254,-0.062428236,-0.037932346,-0.038358126,0.015129087,-0.030604914,0.026636607,-0.180867676,0.016076515,0.032701583,0.005865648,0.058290436,0.085350317,-0.079598011,-0.304390018,0.575390594,0.156199352,-0.202458631,0.016747597,-0.01599337,-0.03985094,-0.017066305,-0.011308988,-0.029658893,0.003359223,-0.027613942,0.041031616,0.003071174,0.015866122,0.002831922,0.003473275,-0.00267174,0.012989547,0.031607306,0.01365885,0.051889516,-0.005660907,-0.006088826,-0.026381,0.00588231,0.017795601,-0.004028164,0.010676337,0.002334004,0.001921345,-0.090191129,0.025724156,-0.027422346,-0.031767832,0.440602016,-0.04307666,-0.006531184,0.009539044,0.000263674,-0.00075297,-0.010157721,0.008518962,-0.000251221,8.89E-05,3.11E-05,2.14E-05,-3.94E-10,-9.49E-11,-4.14E-17,1.09E-16
-0.048519166,0.13367393,-0.087027824,0.04091462,-0.038307725,0.066514172,0.062046578,-0.198530515,0.192228642,0.043477951,0.044286521,0.03669112,0.034959074,-0.251363016,0.096364695,-0.012069578,-0.021592924,-0.074862632,0.025380831,-0.113576918,0.058501091,-0.049901081,0.049457551,0.02834425,-0.147724542,-0.180726963,-0.157439749,0.138033692,-0.09931532,0.189973191,-0.076282856,-0.199631222,-0.024973723,-0.138953468,0.117113227,0.13024196,-0.031140175,-0.010936125,-0.037562067,0.030788129,-0.10314629,0.046809588,0.120312647,-0.035447915,-0.028249624,0.071876605,0.101335495,-0.106195534,-0.076237823,0.022535913,-0.011511124,-0.108233005,-0.004875578,0.012862431,0.077905157,0.028765886,0.072965939,-0.278641797,-0.159580476,0.094492355,0.033067583,0.149367731,0.118825834,0.103375301,-0.08953364,-0.13257163,0.280162789,-0.157042482,-0.186046652,-0.158664409,0.076790226,0.019958461,0.090840713,-0.002353021,-0.036018087,-0.016661956,-0.043572536,-0.010826536,-0.04351183,0.088871819,-0.015881984,0.070679097,-0.037924469,0.124606477,0.181366616,-0.101054876,-0.009523469,0.052499998,0.020802108,-0.004690928,-0.02150012,-0.003602083,-0.008912187,0.006168401,0.003520991,-0.001433238,-0.002414296,-3.31E-05,0.001801849,-8.43E-06,0.000415186,0.001003138,-0.000205965,-5.73E-05,-1.56E-05,-2.74E-05,-6.36E-11,2.70E-12,-4.17E-16,1.32E-17
0.045329704,-0.135462463,-0.033641938,-0.045284385,-0.096840086,0.104596386,0.061801352,-0.001367038,0.036501738,0.253546703,0.023389597,0.024286377,-0.044900855,-0.067674885,0.102749957,-0.115787536,0.094661736,-0.032697553,0.327904484,0.206576184,0.048114436,-0.103273142,0.088642229,0.040297778,0.10741615,-0.106090122,0.064518113,-0.008297103,-0.228939079,0.08124574,-0.068427755,-0.12705965,0.065169356,0.03780766,-0.017066477,0.009706821,-0.039745954,-0.012098429,0.047955894,-0.009815908,0.068641952,0.076499433,0.004184234,-0.038345629,-0.057127396,0.186597555,-0.237777422,-0.029280216,0.050315566,-0.075624062,0.116000047,-0.097090015,-0.030283309,-0.067611388,-0.195724142,-0.094408717,-0.154212759,0.239003432,0.01405115,-0.151834879,-0.018059395,-0.07960413,0.134771358,0.126104332,0.103270264,0.110670021,0.335755622,-0.057815814,-0.042800357,0.042850752,-0.092863032,-0.048269173,0.038738232,0.021457598,0.00366431,0.03381449,0.016876939,-0.006852518,0.002774467,-0.113843081,0.035531569,-0.072050106,0.03413405,-0.102020895,-0.15645856,0.074274211,0.003854103,-0.021047726,-0.012087751,-0.006372621,0.005393562,-0.010349385,0.003969431,-0.00563004,0.000135407,0.008553727,-0.001965479,-0.002785831,0.001398375,0.000455763,-0.000616933,-0.00066115,-0.000233324,1.83E-05,2.23E-05,3.11E-06,-9.81E-11,3.97E-12,9.72E-16,8.36E-17
-0.006027689,0.008826917,-0.114781951,0.005142303,-0.134749453,0.177111557,0.107580647,-0.163163482,0.220037598,0.204164079,-0.009559422,0.039678655,-0.075858367,-0.140050715,0.045847969,-0.01581977,-0.015102954,0.070081425,0.048598181,0.091975496,-0.014360135,-0.025374589,-0.025045178,0.159648639,0.090950133,-0.073041288,0.035833924,-0.005899973,0.203115371,0.039389141,-0.09621504,0.114578129,0.014019406,0.103834722,-0.130242873,0.044160339,-0.120739089,-0.015348729,0.04357199,-0.055360983,-0.022392082,-0.06012528,0.056731408,0.227139016,0.062702087,-0.163054993,0.203999989,0.148315318,-0.095793393,0.014735669,0.068225018,0.155239169,0.072545863,0.268842143,-0.058503747,0.071683336,-0.005540596,0.027868347,-0.098176877,-0.187215461,-0.1194381,0.003592844,-0.117677616,-0.086092862,-0.03294563,-0.083602452,-0.085286896,-0.070416986,-0.008861165,0.11113604,-0.041598694,-0.086216552,-0.023749309,-0.030983365,0.017992113,0.003206849,0.049190554,0.003100201,0.000760363,0.003307203,0.005604174,0.010466767,0.006928734,-0.005502687,-0.00500415,0.04563635,0.019543404,-0.003369244,-0.014839083,0.029020702,0.035342581,0.044938444,-0.009818415,-0.009954877,-0.001974259,-0.042640046,0.00553936,-0.000397216,-0.001736887,0.000544767,0.00040307,-0.001510774,-7.71E-05,-0.000345264,-1.06E-06,1.18E-06,-0.439451718,3.91E-05,4.69E-10,1.55E-10
0.086314663,-0.190236104,0.029117114,-0.013885792,-0.05908504,0.00138399,-0.020985235,0.09928606,-0.097697521,0.071689938,0.032388011,-0.042960692,-0.061237632,0.009299378,-0.053800374,-0.05987325,0.118317761,0.058675659,0.160607109,0.228762291,-0.016382965,-0.03339926,0.084287092,0.002157294,0.210075449,-0.008267884,0.065389659,-0.097249958,-0.009076174,-0.053527819,0.036357966,0.01218489,0.021917428,0.073122122,-0.026958589,-0.055101868,-0.001567406,0.018496478,0.033106402,-0.010217811,0.075704764,-0.049601203,-0.008653534,-0.074637533,0.004473495,0.042868372,-0.039149658,0.002717135,-0.068831688,-0.12743209,0.051619036,-0.01707724,-0.001509612,-0.139910831,-0.063976524,0.111020026,0.039655388,0.01646124,0.028378498,-0.078095732,-0.030241152,-0.033599998,0.026125797,-0.127008829,-0.26163297,-0.211110108,-0.03936613,0.093577143,-0.015508101,-0.107390027,-0.039814666,0.089628937,-0.027849827,-0.023732016,-0.022362673,-0.007046316,-0.069582859,-0.015765167,0.003692519,0.284879508,-0.090404897,0.235239098,-0.02101806,0.298107899,0.450722064,-0.199226875,0.025524724,-0.001497747,0.035818879,-0.0083421,-0.012766193,0.011177108,-0.009579644,0.013436787,0.006321549,-0.00688516,-0.004696491,0.010164997,8.18E-05,-0.000798191,0.001176245,0.002610621,-0.000191594,-0.000281451,-9.15E-05,1.79E-05,8.52E-11,-1.78E-11,-3.43E-16,-1.74E-17
0.079147835,-0.170167975,0.024554915,0.001290103,-0.061091261,-0.016821952,-0.030217238,0.095605241,-0.079741961,0.047654123,0.019107538,-0.007654476,-0.018391648,-0.045928989,-0.043682393,-0.05234254,0.142029799,0.032207291,0.159005062,0.260985803,-0.035146792,0.043838234,0.207319265,0.114930748,0.303525633,-0.038250949,0.116591233,-0.155439019,0.097608069,-0.151270745,0.13110744,0.014288226,-0.064180012,0.070054318,0.205579325,0.089581455,-0.001549289,0.067708028,0.043543686,0.008073844,-0.023394748,0.064246296,-0.037832822,0.044597034,0.057637879,0.017089211,0.066299438,-0.019245018,-0.059372113,0.066285195,-0.187956473,-0.089765598,0.000417981,0.052716605,0.284701493,0.074978895,0.164201435,-0.299902312,-0.089771126,0.199127663,0.101695403,0.077829814,0.053612763,-0.026646022,0.06637444,-0.003032558,-0.034632598,-0.176146181,-0.109406359,-0.00848876,0.162712783,0.002053163,0.05081502,0.029907655,0.022433312,-0.083879764,0.025522271,0.038106167,-0.012806778,-0.087914119,0.038941991,-0.121411429,-0.050820816,-0.125334055,-0.19293425,0.047272421,-0.013298052,0.01385676,-0.008690956,0.01818326,-0.00744004,-0.007198306,0.000224951,-0.000898437,0.001781924,0.00018291,0.001760393,-0.008687538,0.002965138,-0.000185654,-0.000893208,-0.000987969,0.000340375,0.000330774,7.45E-05,-5.75E-05,-4.17E-11,-2.70E-13,-6.19E-17,4.10E-17
0.052456692,-0.113521065,0.059730841,-0.018204101,0.058010221,-0.150360405,-0.138519109,0.14255093,-0.141651556,-0.16808194,0.105134254,0.00138193,0.138670617,-0.073374113,-0.03928522,0.044861636,0.105096354,-0.075791004,0.237899181,0.134473539,0.027952267,0.042748376,0.088293016,0.075502923,-0.011171646,-0.000613383,-0.036040501,0.025874413,0.000901628,0.122629885,-0.090331278,-0.08167467,-0.149591942,-0.02683071,0.028598027,0.02723867,0.132531332,-0.053827775,-0.032915845,0.021822968,-0.114440328,0.053670494,0.162186938,0.121314676,0.003358506,-0.132790075,0.247227054,-0.006167462,0.019650353,0.212963872,-0.015098546,0.148824351,0.02609447,0.238756435,0.070247325,-0.165333348,-0.033608059,-0.001894714,-0.07578055,-0.013436492,0.002619604,0.047029557,0.014853857,0.215360435,0.041609888,0.190612558,0.121703096,0.253011833,0.140971874,-0.000344764,-0.296756093,-0.096517888,-0.115182649,-0.091092195,-0.04906431,0.113072109,-0.02467325,-0.003870948,0.006086694,0.044868712,-0.010105535,0.037580008,0.020940332,0.068308699,0.094580218,-0.018711747,-0.005546019,-0.030057225,-0.005622166,-0.016046228,0.006629627,0.013191239,0.002473472,-0.005558709,-0.004632582,-0.005510594,0.003936114,-0.000990389,-0.020838163,0.001256556,0.000502489,0.00057404,-0.000391375,-0.000117825,-1.12E-06,1.20E-05,-1.59E-10,-6.92E-12,-1.47E-15,-2.19E-19
0.05357047,-0.113704951,0.069318044,-0.026828865,0.075562082,-0.157843553,-0.13982581,0.120791478,-0.153202605,-0.180711246,0.133671393,-0.024544773,0.106130714,-0.053012063,-0.02869295,0.045664431,0.05689377,-0.047288986,0.190957179,0.069893387,0.029380764,0.020731521,0.020838288,-0.032089766,-0.062273285,-0.002167962,-0.088125396,0.068888512,-0.061663557,0.180771736,-0.15502488,-0.142301458,-0.061146312,-0.074441471,-0.070150186,-0.037000182,0.085094211,-0.069416194,-0.093986553,0.030732259,-0.002883403,-0.069184857,0.20532311,-0.033427417,-0.012588188,-0.068761778,0.17501988,0.031654756,-0.042259398,-0.015295108,0.099162105,-0.008389775,0.015409339,-0.100929283,-0.133563747,0.061998952,-0.051688723,0.125624165,-0.001652305,-0.16010321,-0.175180871,0.02181916,-0.174473799,-0.203352586,-0.024263236,-0.228322282,-0.165648649,-0.328029237,-0.079636985,-0.039675961,0.277480245,0.061207408,0.174958211,0.061144615,0.016241928,-0.041839539,0.043887755,-0.027477826,-0.031269185,-0.117901774,0.03404007,-0.03468687,0.051458795,-0.086068567,-0.100414278,0.079645684,0.008428386,0.048729873,-0.000711955,0.022010653,-0.005152084,-0.007746805,-0.009347512,-0.002218882,-0.001375171,0.002829941,-0.000619946,-0.007163102,0.012429618,-0.001398068,-4.37E-05,-0.001194014,0.000244006,-3.66E-06,-1.65E-05,1.75E-08,5.51E-11,7.98E-12,8.66E-16,-5.42E-17
-0.07570938,0.099860469,-0.095343135,-0.046855583,-0.024705093,-0.200073531,0.12497409,-0.080813438,-0.012260049,-0.072583955,0.114644417,0.031349585,0.039962421,-0.192282811,0.049024341,0.005111045,-0.038522358,-0.116287917,0.130953648,-0.058701344,0.065357536,-0.067187646,-0.011133434,0.123690474,0.093420876,-0.314780223,0.032930942,0.010846502,0.081767661,-0.034162766,0.121517137,0.073598881,0.088943026,0.002579349,0.134465071,0.078205226,-0.063537303,0.012177012,0.039573955,-0.024069715,-0.063583486,0.094906758,-0.038779381,-0.145223018,-0.042244006,0.151585424,0.123192485,-0.149737016,-0.046092108,-0.021650593,0.118744683,-0.021520849,-0.035365032,-0.133605372,-0.131883208,0.067822342,0.00095642,-0.003973241,-0.082067037,-0.144606051,-0.056592901,0.057457409,0.018395836,-0.233749913,0.065182289,0.288711124,-0.291753562,0.265454453,0.167036766,-0.128683012,0.011549687,0.074455355,-0.014158834,0.004369495,-0.029261407,-0.04895524,-0.073880931,-0.014774466,0.002315201,-0.022636501,0.008779717,-0.026996405,-0.069519877,-0.032065171,-0.048589744,0.010261024,-0.115679291,0.204605027,0.022029511,-0.030524963,-8.13E-05,0.003219516,0.004610915,0.008934312,-0.00789209,0.001373455,-7.65E-05,0.000241913,-0.002105679,0.000887529,0.000348801,-0.00015407,0.00018357,0.000199622,-2.14E-05,-1.44E-05,3.41E-10,2.86E-11,-4.23E-16,7.38E-17
0.01415766,-0.165841087,-0.040307931,-0.085424002,-0.09071923,-0.07404323,0.101275637,0.045466787,-0.095115608,0.169334594,-0.057843932,-0.000575811,0.069154622,-0.116964746,0.193438687,-0.142473373,0.008020945,-0.049038054,0.005963341,-0.08937126,0.033118437,-0.177973994,-0.18263924,-0.088919438,-0.117565593,-0.17416987,0.162920584,-0.064948881,-0.070711042,-0.009200189,-0.018588029,-0.081702595,0.024045102,0.102758629,-0.130915075,0.002914178,-0.008012292,-0.08034063,0.001805154,0.048353719,-0.038417921,0.061247101,0.174898974,0.038740035,0.005895721,-0.056258757,-0.090395534,0.007983945,-0.068884549,0.075133056,-0.088861234,-0.071356179,-0.011159522,0.083651506,0.022219428,-0.165229298,-0.076680692,-0.016435449,-0.046648914,0.121840777,0.089192031,-0.022389823,0.099986874,0.272657453,0.016388002,-0.093548716,-0.423211818,0.098148576,0.073868442,-0.037491333,0.294065276,0.075838881,-0.032725539,-0.0133419,0.000340191,0.050788824,0.0475826,0.016160549,0.030873345,0.05309062,-0.023076243,-0.006727941,0.124060557,0.011667185,0.029344919,-0.024615903,0.104264148,-0.227032535,-0.025196765,0.020091765,-0.00617937,-0.013311047,3.88E-06,-0.001373875,0.002147133,0.011712948,0.003835147,-0.002204291,-0.000393779,-7.79E-05,-0.000578656,0.000157892,-0.000274709,-0.000551138,1.13E-05,1.12E-05,-1.84E-10,-1.13E-11,8.04E-17,-1.45E-17
-0.051452858,-0.053289585,-0.116658174,-0.120279747,-0.090173616,-0.233176365,0.150381748,-0.069911213,-0.127088452,0.0282195,0.018197555,0.02190976,0.079357656,-0.140282867,0.044978298,0.023104418,-0.066125513,0.101068419,-0.022623137,0.014370515,-0.032683059,0.02962998,0.003515893,0.09439217,-0.04361214,-0.005757482,-0.001699715,0.040055066,0.044859765,0.10189967,-0.137629247,-0.038045309,0.016706612,0.144478688,-0.045628497,0.044532202,-0.125337388,0.07094323,0.108093136,-0.017182405,0.049312705,-0.009864788,-0.076292107,0.007576869,0.017780225,0.10118138,-0.15494241,0.128850411,0.129331727,-0.172097434,-0.037843897,0.180894886,0.103527208,0.224298307,0.112767871,0.076960098,0.039826563,-0.163942921,-0.038232712,-0.183293756,-0.140524165,0.015730699,-0.102783376,-0.005902539,-0.040252905,-0.039188999,-0.045672841,-0.096311153,-0.048083403,0.139047628,-0.095817304,-0.094574641,-0.015891216,-0.061264524,0.019404085,0.016317927,0.027919999,-0.014409633,0.026696459,-0.000641497,0.004605948,0.010721393,-0.020641155,0.011539037,0.012638718,0.014357214,0.032592856,-0.001159568,-0.008210199,0.028660301,0.0243389,0.037956988,-0.006362242,-0.005101896,0.001749513,-0.041474427,0.001712011,0.005511517,0.001105238,0.000589698,0.000375256,-0.001557,-2.82E-05,-0.000432343,7.32E-06,8.60E-06,0.573002875,-5.09E-05,-6.11E-10,-2.02E-10
0.083440235,-0.193118591,0.023756121,0.018379199,-0.068006925,0.061638146,-0.03506545,0.045780293,-0.04752364,0.107668233,-0.086555262,-0.054796976,0.031693211,-0.07093573,0.068610748,-0.095196489,0.079869183,0.067104442,-0.178618983,-0.024765484,-0.026967215,-0.093557151,-0.0674844,-0.16359421,-0.107060606,0.041579186,0.038528105,-0.047112448,-0.009893637,0.044732795,-0.096723727,-0.179833587,-0.109707844,0.059445774,-0.095133041,-0.014463609,-0.00265321,-0.006511853,0.012622964,0.012461404,0.023742205,-0.081427158,0.092256748,0.058125324,0.034020992,-0.090517955,-0.02587949,0.013429838,-0.106465978,-0.03501543,-0.075633706,-0.095790597,-0.004844471,-0.065626443,0.028341696,0.08236285,0.092406423,-0.06170063,-0.020890125,-0.027093689,-0.059705561,0.02792404,0.050828848,0.04127227,-0.227090871,-0.122776292,0.012635106,0.207640669,0.059025051,-0.04858423,-0.197121266,0.039392109,-0.10087368,-0.013708254,-0.030779776,-0.126611073,-0.155291133,-0.000491551,-0.037103177,-0.062609124,-0.010198048,-0.032535506,-0.073636149,-0.127916409,-0.200604238,0.144492508,-0.238738869,0.523215074,0.064039722,-0.072728074,0.003536284,0.02015132,0.00365702,0.016624955,-0.009896837,-0.005486225,-0.005472882,0.006406542,0.002095333,0.002377353,0.000907474,-0.000726716,0.000382648,-0.000302587,-5.40E-05,-8.01E-05,3.73E-10,6.73E-11,-2.26E-16,3.23E-17
0.076821459,-0.169933064,0.019381932,0.033144239,-0.062667486,0.050819971,-0.060455393,0.01404827,-0.031801416,0.081399299,-0.131629366,-0.020711112,0.111810208,-0.129772279,0.090159694,-0.07554387,0.103384839,0.058943737,-0.282809976,-0.06172069,-0.040948246,-0.01705983,0.035204772,-0.083162098,-0.105545104,0.037797775,0.057863747,-0.056844103,0.032901087,0.048483442,-0.125764958,-0.309727899,-0.244221824,0.057134289,0.082848434,0.071562063,-0.051748846,0.100227369,0.06742985,-0.037272708,0.041897739,0.024032192,-0.137531441,0.13971937,0.033141681,-0.053324813,0.115493735,-0.081483705,-0.044338822,0.10023909,-0.071053225,-0.131546087,-0.036089636,-0.12213286,-0.032440654,0.121862447,0.017420512,0.067217544,0.010977377,-0.126638145,-0.044220596,-0.034864257,0.008281674,-0.312371965,0.222584264,0.344253992,0.027111282,-0.042320333,0.018469695,0.064317929,-0.006730134,-8.98E-05,0.093427216,0.050875887,0.00981329,0.032632455,0.01933212,-0.052108222,0.069582211,0.026612231,0.024981372,0.010480151,-0.083681605,0.076186533,0.119857854,-0.115190393,0.078590413,-0.222059167,-0.027667935,0.041498441,-0.007076907,-0.012903114,0.008708602,-0.006871584,0.005476671,0.004577605,0.005812888,-0.009088328,-7.65E-05,-0.001046196,-0.00043073,0.000432774,-0.000401299,0.001568352,2.78E-05,5.63E-05,-5.54E-11,-3.80E-12,-3.16E-16,-1.27E-17
0.087597866,-0.061038186,0.083192202,0.096651179,0.027337658,0.188141773,-0.195889625,0.039405035,0.116830884,-0.036986007,-0.050902085,-0.044172006,0.021102069,-0.056927562,-0.008130912,0.02356722,0.050468515,-0.155808532,-0.065646968,-0.134954457,0.047722187,-0.052717205,-0.049263569,-0.065323695,-0.045490094,-0.025314416,0.113269476,-0.069594519,0.08324346,-0.127111568,-0.00144179,-0.113097514,-0.115401731,0.147400394,0.103865165,-0.030060608,0.08985588,0.120916953,0.150285021,0.021183113,0.078242961,0.155362898,0.078040342,-0.229906033,-0.059834174,0.26575137,0.031842612,0.056682234,0.228669157,0.065270869,0.154872176,0.254349472,0.036991871,0.263451909,0.010143038,-0.010668815,-0.051200065,0.010686291,-0.034248812,-0.07246205,0.030994549,-0.050516178,0.096492066,-0.148288966,-0.04665013,-0.067021363,0.007700062,-0.066930429,0.026377333,-0.179672375,0.020841977,0.020117359,-0.041298833,-0.045362863,0.045540218,-0.06129223,0.189834886,0.269435755,-0.167694988,0.125322507,-0.029502648,-0.005497936,0.138564813,-0.048427772,-0.036862108,0.013111945,-0.024081907,0.038133485,0.006803211,-0.025606605,0.002254908,0.006323524,-0.008268497,-0.000185098,-0.002165251,-0.013152075,0.00667162,0.000121537,-0.024835398,-0.000345874,0.00020731,-2.54E-05,9.14E-05,-0.001286104,1.09E-05,-1.16E-05,2.97E-11,-4.69E-11,-8.81E-16,8.74E-17
0.085937248,-0.023258209,0.100206051,0.106841955,0.044012046,0.215743091,-0.177515644,0.067531056,0.153600323,-0.028847371,0.003610819,-0.044996349,-0.035178764,-0.025339293,-0.000591776,-0.006063641,0.022953063,-0.139170571,0.021727871,-0.086360467,0.054836328,-0.08701269,-0.083490183,-0.088374133,0.007450046,-0.071401908,0.099715597,-0.065992248,0.091355886,-0.126050799,0.084419995,0.01016556,0.025305448,0.092563811,0.029271787,-0.039780636,0.059900962,0.041117315,0.049773689,0.061745632,0.024086169,0.063744783,0.190455638,-0.215699436,-0.007811878,0.103704381,-0.02957994,0.005254871,0.037097684,-0.104952267,-0.003147934,-0.040072066,0.044723381,-0.064418379,0.103897164,0.025535446,0.072744005,-0.099087281,-0.05887186,-0.128446225,-0.206114926,0.156920401,-0.30436603,0.213019848,0.05173605,0.02878795,-0.059228726,-0.036324805,-0.000702035,0.122894699,-0.070393485,-0.114461433,0.06701544,-0.009741092,-0.088825867,0.165596628,-0.216244512,-0.332664023,0.194942535,-0.206342137,0.052605249,0.020222211,-0.119886423,0.063014936,0.077832127,0.022872821,0.076735508,-0.046346801,-0.018356668,0.055610532,-0.005174517,0.000128161,-0.001599609,-0.0082049,0.002281135,0.001370911,-0.010182436,0.003821542,0.014656627,-0.000458415,0.000417309,-0.000888625,5.68E-05,0.000515454,-5.24E-06,1.98E-05,-1.11E-10,1.21E-11,1.28E-15,-7.26E-17
-0.018418066,0.152786626,-0.001298084,0.063910874,0.026717908,0.181670695,-0.040124237,-0.088405068,0.129145014,0.02691684,0.139581612,0.0037586,-0.205344006,0.018555075,-0.113955639,0.063810593,0.082055384,-0.031553867,0.121504734,0.123035279,0.023671681,0.10363845,0.183004633,0.003662956,-0.050599098,0.092266207,-0.105865934,0.046048625,-0.078293517,0.154744514,-0.195564408,-0.294181357,-0.150251353,0.000393421,0.060118443,-0.010403759,-0.02580334,0.104212822,0.127642479,-0.052599704,0.070366759,0.029394457,-0.247439784,0.056638322,-0.011228163,0.022640692,-0.045061725,-0.06335626,0.096054851,-0.066082515,0.028015298,-0.018642158,-0.038370517,-0.105765968,-0.05259702,0.032243204,0.072348774,-0.106288968,0.013344265,0.048916863,-0.046416786,0.067656165,-0.132826406,0.161009167,-0.084170329,-0.089736516,-0.343264736,0.255180039,0.115134427,0.025957271,0.044829162,0.059835157,-0.156275899,0.019118818,-0.0105155,-0.038868229,0.040375046,0.101408166,-0.141317482,-0.156576023,0.014328235,-0.058889016,0.00209486,-0.000476879,-0.020146145,0.035343661,0.061428517,-0.159292848,-0.032930114,0.019802024,-9.41E-05,-0.008529811,0.003301505,-0.001151402,0.003744772,0.003938935,0.004343075,0.002104935,0.0006054,0.000752032,-0.000493523,-0.000192139,-7.74E-05,-2.94E-05,-9.44E-06,-2.22E-06,1.23E-10,-1.56E-11,6.06E-16,-1.19E-17
0.072328904,-0.089268699,0.032408642,0.0570139,-0.019188641,0.228756869,-0.082983916,-0.053424758,0.145129242,0.125273951,-0.134310142,0.021924736,0.093570475,0.036074119,0.022132703,-0.018469905,-0.018935864,0.132411939,0.033241477,0.116189907,-0.053070209,0.05564712,0.183790267,0.053040839,0.01350449,0.166546398,-0.203213133,0.140691213,-0.211090026,0.155269566,-0.050703116,0.033080842,0.122693988,-0.192504091,0.024759037,0.04134155,0.05811065,-0.099449985,-0.148788589,0.078585378,-0.044675866,-0.070351562,0.170262267,-0.07815474,-0.025447863,0.147727951,-0.163701877,0.140797672,0.101231106,-0.040536821,-0.054094068,0.035228671,0.062623039,0.166714012,0.181376427,-0.0257446,-0.016333808,-0.017335109,0.02725746,0.02805344,0.040757529,-0.007363497,0.01335012,-0.189191234,0.111021524,0.235217708,-0.300562859,0.059701492,0.107115262,-0.034669173,0.110586918,0.016897299,0.053736013,-0.046021723,0.003591684,0.038150153,-0.036689715,-0.096190086,0.161181973,0.16463142,-0.02326181,0.035339881,0.003990215,-0.015366005,0.001638657,-0.03894,-0.063641439,0.15270588,0.032359926,-0.016686891,-0.002748336,0.008161576,0.001769202,0.004840718,-0.004220052,0.001006336,-0.001969442,-0.000679717,-0.001196947,-0.00042,0.000504255,-0.000154542,0.00042667,-8.87E-05,-9.36E-06,2.05E-05,8.99E-11,2.21E-11,-1.03E-15,-2.57E-17
0.03878983,0.049747662,0.023713478,0.102895654,-0.010908401,0.305653307,-0.056221728,-0.045742095,0.245048519,0.106321584,-0.02114589,0.007057948,-0.113922131,0.027229972,-0.008130883,-0.029187209,0.045178245,-0.039196517,0.049611183,0.046524574,0.017949386,-0.04066214,-0.018822306,0.023231441,0.093900852,-0.041630804,0.024171543,-0.036926016,0.09187208,-0.059382454,0.052878748,0.104299571,-0.004932376,-0.053711776,-0.044942769,-0.008833451,0.027118265,-0.068513371,-0.061855394,-0.020935931,-0.055070899,-0.03002373,0.099232425,0.138015018,0.025104217,-0.187390977,0.257932287,-0.012510223,-0.167979992,0.151911016,0.07468673,-0.051220805,-0.039667613,-0.015005549,-0.13057157,-0.01820972,-0.036508449,0.153499137,-0.030698717,0.03289474,0.040524092,-0.010747535,0.010381353,-0.049801718,0.012413055,-0.020648149,-0.016347564,0.035042857,0.034198897,-0.044574979,0.052940738,0.023567744,-0.001923986,0.031063738,-0.004643043,-0.011479147,0.008122077,0.013905066,-0.021629935,0.002632275,-0.000255079,-0.002231583,0.021498793,-0.013053508,-0.013647694,0.017098452,-0.014581976,-0.001179845,-0.002625995,-0.005304107,0.002291357,-0.002892836,-0.000967277,-0.002097925,-0.002703296,0.007266435,0.002100827,-0.00481758,-0.002018853,-0.000142391,-5.48E-05,0.000329962,-2.56E-05,0.000138769,-6.73E-06,-6.45E-06,0.691773,-6.15E-05,-7.38E-10,-2.43E-10
0.082732553,-0.180846292,0.015170269,0.035749244,-0.052455253,0.005395785,-0.055869467,-0.000607298,0.017612964,0.003383079,-0.1669147,-0.026287038,0.237759195,-0.108316915,0.068155897,-0.045946529,-0.02458476,0.134388883,-0.145339999,-0.004032132,-0.061898879,-0.021167058,0.049263494,0.053975027,0.076591034,0.003131464,-0.070312345,0.042667385,-0.034397026,0.037035859,0.088113099,0.168033986,0.153001099,-0.137333739,0.029283846,0.034315113,-0.008575544,-0.08297022,-0.132911511,0.049115533,-0.070191219,-0.092948352,0.113149525,-0.136817604,-0.006585876,0.022075426,0.011580006,0.015481079,-0.031623503,-0.11192397,0.040214189,0.013926456,-0.007247452,-0.036721861,0.02385647,0.025973131,0.037180942,-0.035546207,-0.021935735,-0.086414494,-0.074076823,0.131394862,-0.007425154,-0.070809826,-0.091496332,-0.088607472,0.104398374,0.217091305,0.057199987,-0.103683028,-0.097827022,0.056375992,-0.126377068,0.067663073,0.006948485,-0.112956033,0.067779456,0.168499579,-0.300581714,-0.374516322,0.058194367,-0.113512148,-0.082694272,0.045926465,0.00126383,0.011323862,0.142185612,-0.343065949,-0.092283325,0.068328376,0.007871969,-0.006258368,-0.004964429,-0.009924471,0.01051521,-0.000210225,0.005864446,0.001076536,-0.002087349,-0.000598417,-0.001132771,-0.000395623,0.000177366,0.000274565,1.89E-05,-2.34E-06,-1.54E-10,-4.43E-11,4.73E-16,9.46E-17
0.072982171,-0.145126182,0.013984836,0.044522227,-0.056011594,-0.005626359,-0.067565272,-0.008757527,0.038423971,-0.024879255,-0.19550148,0.031179685,0.292192065,-0.159027472,0.070955477,-0.011450999,0.000190801,0.127736139,-0.213246506,-0.004128617,-0.083645149,0.042501141,0.176108206,0.185620682,0.120233348,0.001113807,0.029685799,-0.010625149,0.018630723,-0.00431571,0.056326474,0.047144335,0.009841238,-0.128114661,0.157367515,0.048670514,-0.066313959,0.05893078,-0.021756202,-0.086970438,-0.018808889,0.033487256,-0.222858186,-0.037539216,-0.052457827,-0.011648767,0.118143953,-0.174143655,0.126832955,0.01757592,0.186310273,0.045609284,-0.036217526,-0.134460534,-0.19571653,-0.084658549,-0.056481922,0.076012676,0.032710738,0.063767533,-0.021537209,0.012331274,-0.233125196,0.380000634,0.010302253,-0.116693341,-0.083964915,-0.075397307,-0.045522811,0.102436529,0.073900919,-0.075627927,0.010562306,-0.054559862,-0.015463427,0.081956091,0.050891518,0.00377545,0.036209156,0.165673405,-0.033855533,0.057956,0.15319878,-0.025935158,-0.006420062,0.039633476,-0.06715348,0.161935027,0.047187297,-0.057730866,-0.00879365,-0.004478932,-0.003684237,-0.002017941,-0.008591317,-0.003493567,-0.006494351,0.002554248,0.002141429,0.000722528,0.000614263,0.000545741,-0.000191431,-0.000605021,-3.14E-05,-5.28E-07,1.15E-10,2.34E-11,5.35E-16,-7.96E-17
0.079809155,-0.076403722,0.067298795,0.066233853,0.065180713,0.059563551,-0.229583497,0.038766872,0.096686182,-0.125268781,-0.053050095,0.021114412,0.250620033,-0.170223396,0.042067611,0.089889333,-0.00602157,-0.125410921,0.120667612,-0.043461333,0.056309361,-0.005581249,-0.048629437,0.141584627,-0.026435342,-0.061234016,-0.022218233,0.098644272,0.014099319,0.052600099,-0.085673062,0.119838639,0.033713973,0.08533131,-0.099665918,-0.019091134,-0.161633927,0.042380987,0.168446569,-0.122301663,-0.030548145,-0.002902526,-0.27480885,0.114797506,0.024505411,-0.059722914,-0.097785867,0.024245607,0.088147523,0.024435623,-0.010347356,0.118126198,-0.008842575,0.076367706,-0.056526148,-0.019395434,-0.045226369,0.008474124,0.092511502,0.182253181,0.188053579,-0.164282329,0.261056845,-0.121259589,-0.152579893,-0.122990355,-0.015485539,-0.01331169,0.021322,-0.064160655,0.030724365,0.132975633,0.042041847,0.05389024,-0.049209599,0.019513862,-0.210508472,-0.248895303,0.139053538,-0.205314479,0.025239279,-0.007958297,-0.171119098,0.027931129,0.001547004,0.037328252,0.043257806,-0.008605382,-0.014372014,0.049940582,0.018230432,0.00263467,0.003040296,0.004755484,0.005354971,0.009820816,-0.00325127,-0.003550483,0.016034134,-0.00029338,-0.000487552,-0.000601204,0.000720389,0.000593367,2.40E-05,1.58E-05,7.33E-12,7.33E-12,3.48E-16,-3.05E-17
0.068198818,-0.041392088,0.094559457,0.081059642,0.100907466,0.089561582,-0.236987859,0.077820903,0.122009878,-0.123272294,0.036727398,0.010510456,0.155872825,-0.117728382,0.054370721,0.050552447,-0.006401565,-0.147689816,0.202949385,-0.020198591,0.079325263,-0.041308977,-0.148632986,0.051754995,-0.064155888,-0.097405259,-0.035818637,0.069423204,0.030717711,0.028638341,-0.052489349,0.144660243,0.094425329,0.059148914,-0.177490589,-0.018335329,-0.160667848,-0.030338103,0.059404464,0.009607115,-0.031706277,-0.053501217,-0.089516889,0.041940756,0.074583334,-0.143978245,-0.197209641,0.040394793,-0.106827035,-0.130322633,-0.168120214,-0.139254926,0.013629622,-0.187962294,0.120869463,0.086246525,0.096196133,-0.086617981,0.043259084,-0.046592335,-0.103838351,0.033031338,-0.121394257,0.031468976,0.141220441,0.159877283,0.052254492,0.076049483,-0.114626641,0.139802795,0.015066483,-0.052590887,-0.030578623,-0.000224068,0.051368553,-0.07926326,0.174830877,0.287155183,-0.128812576,0.274758599,-0.047802391,0.016265335,0.13118271,-0.052202346,-0.023690599,-0.0684176,-0.057109782,0.007527063,0.030632249,-0.079656135,-0.019655386,-0.01785166,0.00971881,0.009718094,-0.001083963,0.009820928,-0.001253655,0.005529156,-0.00506593,0.001109384,-0.000595147,0.000959611,-0.000392859,-0.00031357,-2.14E-05,-2.53E-05,1.23E-10,5.85E-13,8.36E-18,3.96E-17
0.020411451,0.043699165,-0.161343992,-0.161617128,-0.02055371,0.045146384,-0.159375917,-0.036638151,0.007442057,-0.199597456,0.025534936,0.111780511,-0.120730444,0.017410894,0.10879795,-0.135068238,0.130014701,0.090566993,-0.085706339,0.078894933,-0.00747184,-0.061424882,-0.031828873,0.049059413,-0.068168241,-0.018096681,0.009573193,-0.052468465,-0.012492098,0.015296627,0.036818913,0.024573646,-0.041722873,-0.012305049,0.048090121,-0.056371661,0.148383954,-0.069416503,0.207456845,-0.24864823,-0.170830767,-0.073518164,-0.016157219,-0.100799535,-0.023938917,-0.132656392,0.19952322,0.004483075,0.131408107,-0.508104147,0.00251464,-0.306419689,-0.093539044,0.216692649,0.11285957,-0.078885383,-0.164305685,0.049095651,0.054259098,-0.006265257,0.0608717,-0.03313283,0.048136385,0.018790918,-0.018576273,0.049782851,-0.050721665,0.009759907,-0.058202841,-0.044884892,-0.052891754,-0.023929679,0.116799388,0.077303404,-0.006348589,0.008604041,0.030158743,0.023243908,-0.011969614,0.006534037,-0.011382731,0.011034981,0.003537395,-0.003349266,-0.000661883,0.006510885,-0.00875042,0.000371086,0.00433447,0.002995577,-0.000591155,0.000803785,-0.009386583,-0.003634688,-0.00232124,0.009761076,0.002414032,0.000822045,-0.000409779,-0.000540788,0.000301088,0.000157841,-1.55E-06,0.000109868,8.21E-06,-1.55E-05,8.25E-11,1.39E-11,1.37E-17,1.14E-17
-0.003769018,-0.068776628,-0.131669331,-0.146046808,-0.09884837,0.004771431,0.043131587,-0.161188278,0.004274949,-0.011336788,-0.176532814,-0.171164387,0.044778494,0.121661781,-0.174929999,0.063498786,0.146032185,-0.100269619,0.057139685,0.015752572,0.04953087,-0.061182766,-0.075340655,0.074700212,-0.138530971,0.02554123,0.065876455,-0.066560117,-0.059509014,0.015508615,0.068314931,0.013975437,-0.038949428,-0.082182034,0.083862311,0.046297952,0.151887414,-0.161763591,0.285556472,-0.423513185,-0.371830109,-0.167507665,0.108072483,0.030692201,0.052341608,0.079437465,-0.173778283,0.08788626,0.048505117,0.238869,0.055904108,0.098163016,0.06226507,-0.201316072,-0.000362999,0.090581187,0.086559412,-0.027770315,-0.002684979,-0.001869057,-0.041966041,0.023728318,-0.078094093,-0.027799672,0.03241263,-0.024660707,0.041280679,-0.031662235,0.027317416,0.041207817,0.051265028,0.014225849,-0.083004597,-0.058101411,-0.006785438,-0.008444739,-0.018297963,0.007202033,0.00138252,0.008215193,0.001556248,-0.010367894,0.008860494,0.007426739,0.004099671,-0.000124872,0.009618988,-0.008993495,-0.000326653,-0.007232567,-0.007302972,-0.007001689,0.016130601,0.003920059,0.001152714,-0.014257294,0.001133741,0.000247665,0.000242231,-3.15E-05,-0.000198956,-8.05E-05,-0.000119272,1.12E-07,-1.10E-05,6.34E-06,-8.02E-11,-1.17E-11,-1.82E-17,7.92E-18
0.008265026,-0.028477827,-0.181975481,-0.192988234,-0.066602013,0.021683,-0.109381705,-0.143435974,0.035391376,-0.178524001,-0.104143134,-0.007721373,-0.016475177,0.083705066,-0.033068748,-0.032250249,0.183763404,-0.000653019,0.026457798,0.070503283,0.03219346,-0.120464652,-0.045116684,0.08124871,-0.109570442,0.033179927,-0.017532597,0.028682132,0.027600102,-0.072578328,-0.002593761,0.025440395,-0.026832407,-0.006288864,-0.003189354,0.032061179,-0.08377515,0.062735481,-0.140460182,0.167734822,0.11882371,0.049498627,-0.018905306,0.026080186,-0.008291219,0.03370533,-0.025191953,-0.011860817,-0.029481857,0.04863055,-0.017042734,0.033563457,0.000893927,-0.044505842,-0.017664128,-0.015441319,-0.000405898,-0.011290768,-0.012815973,0.00046858,-0.006826973,0.0040816,0.004005875,0.012014043,-0.022629197,0.00983043,-0.016993416,-0.000404689,-0.005127493,-0.012224492,-0.008933812,-0.01338402,0.012661184,-0.016124883,0.019703751,-0.004626473,0.017077374,-0.000725037,0.011282131,-0.008997966,-0.007547159,0.023063676,-0.017036305,-0.005745079,0.006220616,0.023315941,-0.011500907,0.008410326,-0.046487731,0.048568426,0.002895129,0.06262692,-0.3176131,-0.102702412,-0.01304198,0.202453831,-0.00328945,-0.004200649,0.001575806,-0.000742291,0.001278383,0.00143057,0.000576177,0.000567662,5.89E-05,-5.14E-05,8.44E-10,2.76E-09,0.704592148,-0.059581076
-0.004331854,-0.085636756,0.034212651,0.091448336,-0.079001796,-0.051586504,0.177610912,-0.131604248,0.002713088,0.129034021,-0.125076059,-0.301256426,0.115461425,-0.007937758,-0.315202436,0.196749532,0.066955922,-0.159303331,0.054835793,-0.051435142,0.04861613,-0.010323354,0.001201687,-0.016119423,0.002202621,0.024142752,-0.007932693,0.042825636,-0.012051326,-0.050135334,0.003597929,-0.000507466,-0.017432909,-0.032232173,-0.033731735,-0.021405077,-0.01698109,0.019678747,-0.018572324,0.019223976,0.023284975,0.030393746,-0.022222107,-0.002845136,0.007025285,-0.031762895,0.041870288,-0.028628116,-0.028021911,-0.084804759,-0.035625843,-0.044043423,0.019734542,0.055086439,0.037832952,-0.044361861,-0.024649005,0.018010252,0.039220494,0.030270954,0.011523093,-0.000719484,0.026584841,0.058211433,-0.152193712,0.041130783,-0.137944663,0.095529347,-0.066732779,-0.063341472,-0.215718605,-0.152401841,0.487717184,0.407319959,-0.009932681,0.076757446,0.142906621,0.035099406,-0.01843539,0.003557577,0.030846909,-0.00455336,0.071902033,-0.007847006,-0.020420823,-0.023243866,-0.008032483,0.001512209,0.010080228,0.013462928,0.009440015,0.01372671,0.029386846,0.011543891,0.004732204,0.0067735,0.002312825,-0.002577794,0.001726359,0.00047653,-0.000291555,0.000393053,-0.000153741,0.000199796,-3.34E-05,-2.76E-05,-7.68E-11,3.23E-11,1.96E-16,-6.96E-17
0.001839667,-0.09144999,0.023616608,0.090812173,-0.07710032,-0.059118709,0.155323774,-0.146483917,0.004211732,0.096484486,-0.112236874,-0.299872388,0.126480002,-0.038235919,-0.311266631,0.21173338,0.067280391,-0.1606641,0.050059912,-0.062237354,0.049403294,0.004457459,0.009243856,-0.004648054,0.018672838,0.013265573,0.000207082,0.037127674,-0.024365364,-0.049081656,-0.022986283,-0.02595637,-0.023662788,0.002871465,-0.071820216,-0.045231846,0.012984901,0.038546407,-0.042750915,0.071154647,0.061970274,0.034343941,-0.035619486,-0.080313723,-0.024116525,-0.117026581,0.169695415,-0.014906959,0.021319635,-0.306292751,-0.022554925,-0.187961891,-0.07373137,0.131173713,0.038081663,-0.036455252,-0.071452612,0.065347994,0.03346338,0.005212283,0.035114864,-0.017383023,-0.015327353,-0.016710444,0.165832991,0.015978434,0.098042156,-0.073156049,0.02585853,0.032093832,0.179024759,0.12275651,-0.373929819,-0.333223375,0.014178621,-0.063039172,-0.113655484,-0.03125926,0.01330159,0.00757693,-0.031365262,-0.002724682,-0.059363811,0.00585357,0.011822397,0.03233945,-0.006374964,0.006143369,-0.00684527,-0.009125084,-0.010695729,-0.008939155,-0.0573524,-0.021989989,-0.007437117,0.015797442,0.001382939,0.002022374,-0.002727768,-0.000717642,0.000536952,6.80E-06,8.25E-05,-9.13E-05,4.53E-05,8.41E-06,1.07E-11,-2.28E-11,-1.09E-16,4.89E-17
