,0
0,0.0006218019304739283
1,0.0009502174546296922
2,0.000627192188682063
3,0.0006763299512515471
4,0.001115574750017606
5,0.0003665260015310437
6,0.0005972663397484651
7,0.0008140195289072779
8,0.0007778682085390755
9,0.0004866713772289152
10,0.0005882859664291142
11,0.0006579249861271145
12,0.0009625565610051679
13,0.0007975008105264893
14,0.0009915076311272782
15,0.001184043547207485
16,0.000610822232402402
17,0.0003780783338120513
18,0.0007094232129980855
19,0.0006583123530585194
20,0.0006472937836235437
21,0.0013327529398483103
22,0.0007519447138377317
23,0.0005860868123348883
24,0.0007392882197579539
25,0.0005631289557538309
26,0.0005711861297742464
27,0.0006133711478143707
28,0.0008582021117030448
29,0.0005953540739277006
30,0.0006061598074725415
31,0.0011244916454796147
32,0.0005762673107629459
33,0.0012349058633549994
34,0.0007782948380660819
35,0.0005949482311953191
36,0.0008928868990376745
37,0.0007590124842287941
38,0.000598516956694449
39,0.0005546644630897888
40,0.001093635423220633
41,0.0008357694288986888
42,0.00042166387764026744
43,0.0012091650084252708
44,0.000549369544133404
45,0.000891015316396209
46,0.0008017480700379968
47,0.0005532730017186202
48,0.00037843154895180376
49,0.0011475241933717338
50,0.0007950330622307387
51,0.0013135980901562796
52,0.0008134908928628524
53,0.001013067556823479
54,0.0011676889845088185
55,0.0015520049890395482
56,0.0030439500326893427
57,0.0006125162803247317
58,0.0004187814765520579
59,0.0006128405139706274
60,0.0008699800148345151
61,0.0007503014349233141
62,0.0004179390567545082
63,0.000854820343265405
64,0.0008046998573888849
65,0.0007556087380618423
66,0.0007417278272017188
67,0.0006944616822545695
68,0.00040532856468792586
69,0.0009214871162580237
70,0.0008500387368653219
71,0.0011098760559421807
72,0.0011793417091390307
73,0.0005078261370964664
74,0.0008004378092770872
75,0.0006524459098228845
76,0.0006555302593236555
77,0.002654715527958255
78,0.0005928710152060142
79,0.0010099204463960895
80,0.0008775173217279306
81,0.000708031789819585
82,0.0007204673247590737
83,0.0005810995120721223
84,0.0009421443672609827
85,0.0007318928504213029
86,0.0008519161231699065
87,0.000863934439575542
88,0.0012319864663154015
89,0.0009013967213656363
90,0.0005452655898193962
91,0.001152722011786635
92,0.0009100330038203101
93,0.0006327596370426583
94,0.0006019535693413712
95,0.0005161241933611603
96,0.0007161497475426873
97,0.0008107824726098778
98,0.0006600869537264991
99,0.0009630165691911505
100,0.0008528093060705685
101,0.0006055435578497219
102,0.00044656384573962555
103,0.0003968497233604978
104,0.0007927972511776806
105,0.0009782266736680588
106,0.0021874415430742783
107,0.0004945386572845527
108,0.0006292277391231148
109,0.0005360911188561534
110,0.0010176566886410238
111,0.0004959676714004906
112,0.0017023272448461729
113,0.00044355275489545084
114,0.0013428541184327368
115,0.0005913482601640607
116,0.000591425378544517
117,0.0008320685943906628
118,0.000786551929504038
119,0.000534447507370494
120,0.0005694661581342761
121,0.0008192963465610502
122,0.0005368647187806361
123,0.0004953340403165365
124,0.002168899611631675
125,0.0005462472915208061
126,0.0007461510632632332
127,0.0005290587509274529
128,0.0008954588244367555
129,0.0008330484866560605
130,0.0003950803415698149
131,0.0008254822599975128
132,0.0006678404507978225
133,0.00041641459734329407
134,0.0005048023508467558
135,0.0013665541173581823
136,0.000972770001116549
137,0.0009580032150106707
138,0.0008607742407296347
139,0.0005986794165828804
140,0.0008770496530081353
141,0.0005263669806568163
142,0.0004902883512847687
143,0.0005489187144398608
144,0.0009083291916719064
145,0.0005803037707237101
146,0.0008336058091416599
147,0.0005880934863948261
148,0.0009255082611424795
149,0.000541726068056648
150,0.0008242915535008956
151,0.0005443176664079004
152,0.0011352375492957299
153,0.0009237532856359763
154,0.0009384063696292596
155,0.0006596471712227956
156,0.0004860357489315044
157,0.0010167504534776156
158,0.00035946558827247116
159,0.0006936249409430905
160,0.0003194983419803777
161,0.0005842339107488399
162,0.0006688011295460533
163,0.0007817527656008942
164,0.0005261840003961899
165,0.0004222522847079228
166,0.0011530287437787968
167,0.0007117895157864928
168,0.0005897670492447294
169,0.0007539395161753691
170,0.0006727982515232242
171,0.0008842089750315768
172,0.00046349417572868074
173,0.0008720409626072281
174,0.0004297885916495063
175,0.0005313344290263825
176,0.0008389758705903123
177,0.0008087430688956432
178,0.0007332933947060346
179,0.0009153679984389935
180,0.001972591763892844
181,0.0009286774156072247
182,0.0012983258081231137
183,0.0007101298170651703
184,0.0006063963257548224
185,0.000590485781919351
186,0.0006030810094622116
187,0.004805075285591063
188,0.000746304879394555
189,0.0006998092033206975
190,0.0005153020749794527
191,0.00044241879338880017
192,0.0010584101962223412
193,0.0009844787173272722
194,0.0006038404244261969
195,0.0006381390927950308
196,0.0006124968928499141
197,0.0008009635855610499
198,0.0008632441049273483
199,0.0009964497815525622
200,0.0007266029921298015
201,0.0006755742493040196
202,0.0009650635698300209
203,0.0010398683931105797
204,0.0010413715506572118
205,0.00046123557191479124
206,0.0006707260233470188
207,0.0006477091035571663
208,0.0007277143052025918
209,0.0003976243562946466
210,0.0007511720686708872
211,0.0010646717289134178
212,0.0006745160757754701
213,0.0012708015639874605
214,0.00077688380466352
215,0.0004644026271235276
216,0.0006708347283653239
217,0.0005008307238869828
218,0.0006921038265971549
219,0.0009120328493727217
220,0.0007353520178743036
221,0.0005053304201017991
222,0.001212492019934124
223,0.00039386526439289676
224,0.0009329958561204612
225,0.0007323041961564234
226,0.0008290945110608324
227,0.0004537811574372001
228,0.0009959649108156002
229,0.0007595760751945555
230,0.0005407869762798063
231,0.0005197094590938361
232,0.0006188908479677394
233,0.0006265904684259875
234,0.000819183517660458
235,0.0005201614936725451
236,0.0006850252844647535
237,0.0007510789566988764
238,0.0006778171663824487
239,0.0008222701684350491
240,0.0006160222534232422
241,0.0008410488305341753
242,0.0005891701798929309
243,0.0005294858653703272
244,0.0006802685746213089
245,0.00046221451141174934
246,0.0005265150705563358
247,0.001123282057596271
248,0.00041164722151476515
249,0.0006574202026190969
250,0.0008666518117773262
251,0.0005640845373442885
252,0.0009718353021151418
253,0.0004891553072812662
254,0.0004610187285428879
255,0.0009193997580076029
256,0.0011147323144064596
257,0.0012603365223542563
258,0.0012845323293947124
259,0.000504723089663117
260,0.0005258665103317981
261,0.0006988666256411869
262,0.0003908468683328386
263,0.0006085379093847461
264,0.00066154206874992
265,0.0005247671089128258
266,0.0008771658119930937
267,0.000501890092111802
268,0.0016655528831862228
269,0.0005463274464752823
270,0.0007416141732109917
271,0.0007364550387306451
272,0.0008066871519756857
273,0.0007868139644487735
274,0.0006501821675559253
275,0.0007494247573221632
276,0.0007162264091216921
277,0.0010358756284940293
278,0.0010175045302485957
279,0.0005613401484112684
280,0.0005474082379892362
281,0.0006198106976264596
282,0.0005828898414917117
283,0.0007057454355607532
284,0.0008722512734318476
285,0.0006260806433666346
286,0.0006543508504793358
287,0.000598115233059605
288,0.000707786409988279
289,0.0006252080580607034
290,0.0004371478378301768
291,0.0009193173431204042
292,0.0013517433230481578
293,0.00045156886570287675
294,0.0006128137145647879
295,0.0006194272010198266
296,0.0007812469477077658
297,0.0004107386336268698
298,0.0005520656610662735
299,0.0005642470335202725
300,0.0007098073566225306
301,0.0005219410894477577
302,0.0005733810262152821
303,0.0006603672899386818
304,0.0008497940962012128
305,0.0004706203004948153
306,0.001236714157112835
307,0.0017820533021860139
308,0.0011240173979115218
309,0.0005517232488948676
310,0.0007299562120876622
311,0.0010502812129717688
312,0.0006472401256379265
313,0.0009632667562625996
314,0.000963577618745598
315,0.0005717183129944909
316,0.0005288805550388281
317,0.0006439292778661511
318,0.0009931941365262157
319,0.0005726701976619818
320,0.0013461117308938013
321,0.0007011518728370929
322,0.0009481755083629488
323,0.0004097126298949209
324,0.000867107357312853
325,0.0007083025440904543
326,0.0002863511904441614
327,0.0004458993831037207
328,0.0004534995328496188
329,0.0009822403721945205
330,0.0009078939056540128
331,0.0009703803800196455
332,0.0007246797545159838
333,0.00037062114005196396
334,0.0006197185032988667
335,0.0006804927641647654
336,0.0005097364163330278
337,0.0010367678502267602
338,0.0007668006085570766
339,0.0007888529852586192
340,0.002326001195626822
341,0.0005013590189720361
342,0.0006675354870892935
343,0.0004245380808409686
344,0.0005213558959488594
345,0.0009610668726411661
346,0.0006105154316343443
347,0.0009457847862220081
348,0.0007538628233311165
349,0.0007290944195039448
350,0.0008909542650229838
351,0.0005908311123042119
352,0.0009489408824761405
353,0.0005438421373031548
354,0.0006688690039344583
355,0.0006090225300223132
356,0.0009760742895905084
357,0.0005374408249257221
358,0.0006151716985000764
359,0.001125973469135699
360,0.0008900589963593016
361,0.0009784380099225048
362,0.000488468276194857
363,0.0007491721879683683
364,0.0006871956655939766
365,0.0007830280988056792
366,0.0010805811541057028
367,0.0011755483193145843
368,0.0006641085051752462
369,0.0007234455599889786
370,0.0012362193331942864
371,0.0005429591592139338
372,0.0007183413259008275
373,0.0008032548563975004
374,0.0009375495693699067
375,0.0006971623018173625
376,0.0011686750734346309
377,0.0004959253728554642
378,0.0006399777507191522
379,0.0007793969094367338
380,0.0006436476381186718
381,0.0004948066988652224
382,0.0009080055130634022
383,0.00074354461340123
384,0.0008516907507209023
385,0.0005345404458096972
386,0.0006953594282871021
387,0.0006988331180545894
388,0.0010040927138116283
389,0.0004979848449941726
390,0.0006737379349628176
391,0.0004844212313188046
392,0.0008534343015515989
393,0.0005231790219924693
394,0.0007881104079324276
395,0.0005779378708965136
396,0.0005424158585076992
397,0.0008238704740887508
398,0.0012454497551808632
399,0.0005880433059126782
400,0.0008539322322019737
401,0.0006324698923874375
402,0.001118904717665564
403,0.00048097656097054436
404,0.0007124884638813572
405,0.0007673759933238952
406,0.0009310304713167836
407,0.0005659098095662339
408,0.0006018324776897142
409,0.0005232241668052659
410,0.0007193105218936121
411,0.0009970212550842851
412,0.0008449080013948738
413,0.0006809719625390202
414,0.0007770821945783453
415,0.000572986593700019
416,0.0008682862054288738
417,0.0005658069060904891
418,0.0007235642213125337
419,0.0011287295176902212
420,0.0006800173212924754
421,0.000887669713365679
422,0.0008145979642061376
423,0.0012905893479254965
424,0.0007448611386282453
425,0.00041130297556694445
426,0.001265552594299157
427,0.0005554668836166123
428,0.0006592936525699083
429,0.0006424927014914457
430,0.0006367898037196967
431,0.000998328284038704
432,0.0005610482974348657
433,0.0006704051040208214
434,0.0008551230212226134
435,0.0005649904614033017
436,0.0004667688608971114
437,0.0006379179813522321
438,0.0007720555404271604
439,0.0004594809782140449
440,0.0006134810370036894
441,0.0006423173271344449
442,0.0006823745514378145
443,0.0005550348410250389
444,0.0034067328546563067
445,0.0012098631001658496
446,0.00034011521720321824
447,0.0008180215310008524
448,0.0012954300509365726
449,0.0007706409646699968
450,0.0004723250363846808
451,0.0005156970715052702
452,0.0008933839270560722
453,0.0007241593480467712
454,0.00043223576497566755
455,0.0009012489296118557
456,0.0008971263936856552
457,0.0005581610627143856
458,0.0006764039912261241
459,0.000703081346712825
460,0.00034566808273240305
461,0.0010054998949142332
462,0.0005620285470844154
463,0.0005257885400681693
464,0.0013184092156907166
465,0.00101291158471228
466,0.00047080249242164283
467,0.0005142001383706164
468,0.0008451708327139852
469,0.0004664115393803164
470,0.0005824159092209296
471,0.000958877134275418
472,0.0004059445293720309
473,0.0007546855682552956
474,0.0007380652040727236
475,0.0006558319265522945
476,0.0006450174614496074
477,0.000735680370948201
478,0.0007615074805895985
479,0.0009138914840212501
480,0.00044219304650355807
481,0.00041592103330423034
482,0.0006471083984918829
483,0.0004169224156697378
484,0.0006382010381987446
485,0.0005724122687340665
486,0.001001501285641668
487,0.0006887906700183517
488,0.0007645495918880705
489,0.0006835955200619484
490,0.0007613238409855289
491,0.0006548978208306018
492,0.00046528016580483486
493,0.00044548753671422206
494,0.0005008535353617976
495,0.0007722657719297586
496,0.0006332676066906122
497,0.0006768316340499894
498,0.0007502945262710303
499,0.0005481081025725072
500,0.0005497701904431442
501,0.0005411514213732794
502,0.0006101333123438944
503,0.0007999897867101334
504,0.0008022727449163253
505,0.0004386297076808483
506,0.0007107219914102333
507,0.000724787765511084
508,0.0007061808930991493
509,0.0006574669404630961
510,0.000490059344836281
511,0.0006697790803473211
512,0.0011381595883430357
513,0.0016459742692494065
514,0.0005672530979783871
515,0.0007217005008690655
516,0.000960569043090399
517,0.0007540227219634814
518,0.0012181551757609029
519,0.0008389728069228781
520,0.0007154123381797753
521,0.0003063188506851132
522,0.0005010677294444149
523,0.000875897248794802
524,0.0006201062028538578
525,0.00045820469005555136
526,0.0005650024582112385
527,0.000562256782646023
528,0.0006126074993652016
529,0.001048816454796431
530,0.0007003570488300829
531,0.0005332115342026225
532,0.0003682362682785146
533,0.000657881499066251
534,0.0005956744025064145
535,0.001180763694995334
536,0.0015145464374995015
537,0.0007502305204793166
538,0.0005883933347773555
539,0.0009268589214091497
540,0.0007062526547661493
541,0.0006007277882890134
542,0.0005845448654680398
543,0.0007060092013223583
544,0.0007745767620117514
545,0.0007827157710428198
546,0.0008212390516113456
547,0.0009971435218154258
548,0.0009930680196025509
549,0.0008345775047233008
550,0.0008231637147111075
551,0.000696999232024697
552,0.000497809555707091
553,0.0006624545569509384
554,0.0005993513427606078
555,0.0008365608150364013
556,0.0010040718750007204
557,0.0005345409415922757
558,0.0005407421439139873
559,0.00032254176851779354
560,0.000533986404569158
561,0.0005762831188818653
562,0.0005108469884339137
563,0.0014811978822344932
564,0.0007596163742405316
565,0.0006636404952566071
566,0.0005733984253193311
567,0.0006354381424208141
568,0.00101383566203332
569,0.0005270754673713815
570,0.000694231754916051
571,0.000547861965711848
572,0.0006547675648089624
573,0.0006223920928114139
574,0.0008988874503864863
575,0.0009273322625351892
576,0.00043300607962851954
577,0.0011425872380207
578,0.0008922118611379106
579,0.0005024801299911883
580,0.001677549394216747
581,0.0010013304767321602
582,0.0009407895282173696
583,0.0013249604676189874
584,0.00274829996698827
585,0.0011762965223914503
586,0.0006368793762859238
587,0.000543826535417203
588,0.0007170079781262001
589,0.0005798376036957179
590,0.0008665255491760669
591,0.0008979537419783262
592,0.0004767371752269894
593,0.0006948802090546199
594,0.0008013259583949864
595,0.0004931667707818142
596,0.0006746996562629558
597,0.0007873016795028013
598,0.0006128074118958988
599,0.0004726348136363784
600,0.0012670499680032313
601,0.0011216116718206122
602,0.0006363018462569553
603,0.0007209510478085299
604,0.0006776945641057546
605,0.0008786788717261259
606,0.00048506321435522914
607,0.00046021121835395533
608,0.000691126964216079
609,0.00048038796507961337
610,0.001037870363464372
611,0.0010787203455785072
612,0.0013286863540710166
613,0.0008284913151875522
614,0.0006699422170486734
615,0.0004804258357831627
616,0.0008046719972121212
617,0.0005783202864052353
618,0.0008367160705226001
619,0.0007202835850562073
620,0.0006987426594049171
621,0.000871259385864074
622,0.0005358388233094147
623,0.0006916943458906516
624,0.0006025948916678054
625,0.0006003543458394465
626,0.0007075448657755507
627,0.0005666664712100804
628,0.004025234568638953
629,0.0009413316667723856
630,0.0005549970846287616
631,0.0007020378262002516
632,0.0006385471723669699
633,0.0006847957475222429
634,0.0005829135840126091
635,0.000513771462712654
636,0.0007396064473572743
637,0.00033608168603905934
638,0.0008003653399698089
639,0.0006725062424736869
640,0.0010011121743300551
641,0.0007613988214320793
642,0.0007571311207791703
643,0.0006975886756608033
644,0.0010075565246926478
645,0.0007563389226284495
646,0.0008202880203939017
647,0.001010485591965619
648,0.0008219407906389264
649,0.000563564936816202
650,0.0006756323224101753
651,0.00041835125260803396
652,0.0011651426729175256
653,0.001082535998601386
654,0.0006458660910098757
655,0.0007673135389646177
656,0.0014983524797257347
657,0.0006036770953959107
658,0.0009164873629000663
659,0.0012473837472491117
660,0.0006115670546469578
661,0.0011921805052830677
662,0.0007709555432508107
663,0.0014827391551148843
664,0.0005391785951297884
665,0.0007543265326990749
666,0.0011513210853936868
667,0.00045952339463236854
668,0.0008113290556443244
669,0.0006888156602089464
670,0.000665921162896637
671,0.0007778334421680177
672,0.0007483554672448433
673,0.0007236825654333456
674,0.0003959010416076357
675,0.0007827171268409842
676,0.000626364190931004
677,0.0006707261335565938
678,0.0007150425212739363
679,0.00047466496850978395
680,0.0008180392173534935
681,0.0003912527090396015
682,0.0006711897405806849
683,0.0013227259721703064
684,0.0009307878097061851
685,0.0005458832168685506
686,0.0008957324936694637
687,0.0007909322707599471
688,0.0006608123974797948
689,0.0005479340326736611
690,0.0005822918585464302
691,0.0008177400693930453
692,0.0007098973657314715
693,0.0007880637961006559
694,0.0008916351958193815
695,0.0007872088613837557
696,0.0003803452776534127
697,0.000982759496819825
698,0.0007705272882783555
699,0.0013160176851946233
700,0.0005694312238857554
701,0.0005053314679459545
702,0.0005186611413710007
703,0.0005399743007544964
704,0.0007098648744437738
705,0.0005003341680998749
706,0.006038525224237007
707,0.0008199280289810762
708,0.0007075812523453266
709,0.0005274156408835309
710,0.0006553379763089581
711,0.0004774129115095381
712,0.0010103389297550368
713,0.0008913627121118544
714,0.0006791399652704214
715,0.0006561817344057613
716,0.0006081452213439134
717,0.00039762816133658094
718,0.0007201308742760054
719,0.000692299515551832
720,0.0006914021646744319
721,0.0008256991083596795
722,0.000628591585240719
723,0.0006276042096935408
724,0.0009324484958966958
725,0.000900240157640887
726,0.0011303664390173436
727,0.0007139947134955156
728,0.0006798292187468006
729,0.0007034493711889729
730,0.000982099049750837
731,0.0008742422675192069
732,0.0005843250380050456
733,0.0006569329787314113
734,0.0007254371441386059
735,0.0006886370458110794
736,0.0008887033626706538
737,0.0004267698081955503
738,0.0008157671225946572
739,0.0005959321224629423
740,0.0008499417725645734
741,0.0009531337960436731
742,0.000496491675875305
743,0.0007012304810638039
744,0.0009018135063376091
745,0.0007529000755262382
746,0.0005428876664094458
747,0.0005352329494453686
748,0.0007508241907517356
749,0.0006853394460715714
750,0.0006054182893022499
751,0.0006664112775956731
752,0.0005207245743921696
753,0.001307149298604998
754,0.0007112768012540769
755,0.000697656265462956
756,0.0009539920224704874
757,0.0005518565270413145
758,0.001218515876194452
759,0.0007882979434170908
760,0.0008121058141506268
761,0.0009062835974032569
762,0.0007482908649389653
763,0.0008564458797576676
764,0.0006914665471173445
765,0.0009703019704256379
766,0.000496288966239667
767,0.00094840256618487
768,0.0012707723522195288
769,0.0009748906566076503
770,0.0006004889860227104
771,0.0009291471702643999
772,0.0006347188154455315
773,0.0009294550321732729
774,0.0009339367275447814
775,0.00035302088347323885
776,0.0008830543913166462
777,0.0009949941236107737
778,0.003045220749315004
779,0.0006979713298807943
780,0.0007075787768193718
781,0.0003834050077064185
782,0.0007424901371669983
783,0.0010828782595225656
784,0.000843451148946724
785,0.0009031681559586459
786,0.0005753501912243524
787,0.0007363934099499172
788,0.0005390903218788772
789,0.0006631104110453982
790,0.0006564386204640147
791,0.0005633036024231076
792,0.0008306143904486202
793,0.000542637904170476
794,0.001006263589667411
795,0.0010208045606003547
796,0.0005233441701794523
797,0.0012220474872527908
798,0.0007296448241628991
799,0.0008458242807999482
800,0.000772673542168801
801,0.00038688384755452415
802,0.000944591186224765
803,0.0005635586733446514
804,0.000829423804526234
805,0.000600377613879457
806,0.00035291919068360355
807,0.00039999413645997237
808,0.0010246422321445387
809,0.000879355196340304
810,0.0005827680977355644
811,0.0005666077197813365
812,0.0011520173888464914
813,0.0009328982322618391
814,0.0009074006299576005
815,0.0008476250645660413
816,0.0005940360889983394
817,0.00045186477883837125
818,0.0007858804218868344
819,0.0009823906943052074
820,0.0019336391863413556
821,0.001020298963887382
822,0.0010061079534976532
823,0.0013230157229628117
824,0.0006191193443372012
825,0.0006065222182044276
826,0.0007377334070970163
827,0.000735137453630927
828,0.0010468781799512481
829,0.0007023194786812769
830,0.0011054908220344477
831,0.0006356681555586584
832,0.0013049946780572977
833,0.0005849937011800163
834,0.000640991934586816
835,0.0005645319476205745
836,0.0005752311043897881
837,0.0006666432636123874
838,0.0007516048422649435
839,0.0005182287923770379
840,0.0006640479672938166
841,0.0006127913144962277
842,0.0012503163180197384
843,0.000961389464184358
844,0.0008511076790232056
845,0.0011536946992569952
846,0.0008256176044802384
847,0.00041270194094435213
848,0.0005867187224399148
849,0.0006149845420960093
850,0.0011069280492531442
851,0.0007533835413698698
852,0.0005956098330276996
853,0.001184580267136009
854,0.00044015763955438655
855,0.0003670712846714887
856,0.000773117130750076
857,0.0005465087896264788
858,0.0004917736161332552
859,0.0008342026213321215
860,0.0008186086093594918
861,0.0007925530824413608
862,0.0005265652982606292
863,0.0007197640674245214
864,0.0004970856776442864
865,0.0009964076475559968
866,0.0006456398041113699
867,0.0007826558491131928
868,0.0006538574148951932
869,0.0005710555905943824
870,0.000480182304811876
871,0.0004941581899345528
872,0.0007836694456240855
873,0.0012479124711933954
874,0.0012164378427062868
875,0.0005540284573932493
876,0.000947336165491423
877,0.0007887255431869906
878,0.0008375583300240003
879,0.0006521923876649526
880,0.000560311918004238
881,0.0006645132392315493
882,0.0006472120953612577
883,0.0006456206613967183
884,0.0015394038479046488
885,0.0010652616913327255
886,0.0008188140813078155
887,0.0008884024503611298
888,0.0005394588118885098
889,0.0006804609532440186
890,0.0005223737889768625
891,0.0007626549869137991
892,0.0007356510514005902
893,0.0009127045872728812
894,0.0006375350425507919
895,0.0010502690332127207
896,0.0005544617814748291
897,0.0007207728590977908
898,0.00045051485656534665
899,0.0008591348384450566
900,0.0005781191740803354
901,0.000545500915779552
902,0.000453860339371514
903,0.0011202645522849595
904,0.001613995841951073
905,0.0020800498522186386
906,0.000726639698952455
907,0.0007914009631289571
908,0.0007460684130040693
909,0.0006740647273955862
910,0.0006379342457741259
911,0.0005701237146341202
912,0.0009257740726363715
913,0.0006371219324701573
914,0.0007057831150159165
915,0.0006494907950953216
916,0.0008725925485861378
917,0.000517754177713138
918,0.0009756549462052933
919,0.0010711054273694009
920,0.0005477236326691041
921,0.0008306860918396472
922,0.0010102448321635885
923,0.0014807036339661958
924,0.0007503978723062418
925,0.0008184328594705841
926,0.0010426826371178945
927,0.0006005556404868941
928,0.000972004035853776
929,0.0006221197754831708
930,0.0006234320322861628
931,0.0008588208208435903
932,0.0006853289053154618
933,0.0005772316842086133
934,0.0007055879422827631
935,0.000676615251628445
936,0.00045044584339905844
937,0.0006643415932489125
938,0.0006171658665486278
939,0.0005668650726587511
940,0.00029009403344672306
941,0.0009566256557059262
942,0.0006456040096923066
943,0.0006666160194407963
944,0.0011918341729337415
945,0.0007555270548406228
946,0.0009263012884960213
947,0.0007825324527500504
948,0.00047607533209041876
949,0.0005883686306495797
950,0.0005244579371131553
951,0.0008191096777911866
952,0.0011142599094683093
953,0.0005087044217377411
954,0.0005764334109076408
955,0.0005803064417327857
956,0.0006376012702532215
957,0.0006220826314517524
958,0.0003823330162332473
959,0.00090641015200195
960,0.0005358891545797559
961,0.001137106391261241
962,0.0009587824279925896
963,0.0008975848040431354
964,0.00057611854487012
965,0.0006038881652933774
966,0.0005494650423643537
967,0.0007792066788069874
968,0.0008491351119842646
969,0.0006742683266855976
970,0.0007022124571559836
971,0.0009218128942850742
972,0.000833026003408585
973,0.0007149100667427817
974,0.0005504935660539407
975,0.000597399512205662
976,0.0005728082505249096
977,0.0004057834436379156
978,0.00076688378671509
979,0.0011041258267346509
980,0.0005424386541154429
981,0.0007851991414507104
982,0.0010404633710894597
983,0.00045363933056140397
984,0.0012744138890547095
985,0.000728579605457524
986,0.0006099686881975351
987,0.001036217746962768
988,0.0011207764046063007
989,0.0005842802456495852
990,0.0007817450649137686
991,0.000666739289355863
992,0.0005323993421294591
993,0.0006354432112443714
994,0.001407806105698227
995,0.00045949162798781385
996,0.001074743600404346
997,0.0005603862369053365
998,0.0012347945127398243
999,0.000949495888658837
1000,0.0008032099904318424
1001,0.0007592695153980096
1002,0.0007223917568993781
1003,0.0009376763243044375
1004,0.0014049386762368906
1005,0.014140159888718805
1006,0.0004894520370776535
1007,0.0006052956251703533
1008,0.0005544563673395959
1009,0.000686043654804207
1010,0.0005713768127932941
1011,0.0011255842806920846
1012,0.0009322355192647487
1013,0.0007928030490947575
1014,0.0007952155239563351
1015,0.0005678078918455296
1016,0.0009131808807827796
1017,0.0006743617547306101
1018,0.0006066387023702025
1019,0.0005763590028008245
1020,0.0007032795621553867
1021,0.0007347936929126248
1022,0.0006161745947202414
1023,0.0006805647005771863
1024,0.0005497469176918007
1025,0.0012095890017503979
1026,0.0007222371398931688
1027,0.000586529098919209
1028,0.0005065064656179707
1029,0.0006082888884686905
1030,0.0005139350019825105
1031,0.0008387592881308294
1032,0.0005014948647140341
1033,0.00035195353849241083
1034,0.0005796242880821053
1035,0.0013369098558981673
1036,0.0013712972516511308
1037,0.0010536462011717308
1038,0.0006807598859265513
1039,0.0009353478837682061
1040,0.0005021645535749258
1041,0.0008343457214383124
1042,0.0005335503171586541
1043,0.0005964975752479024
1044,0.0008909855768173881
1045,0.0006192175117836878
1046,0.0008285728647159396
1047,0.001108080151108857
1048,0.0010243460568511783
1049,0.0005617735288733941
1050,0.0006430183703049878
1051,0.0006947430582384222
1052,0.0008256405328510932
1053,0.0007286407570719213
1054,0.0004716736890307665
1055,0.0008548821742846961
1056,0.0007830624835588432
1057,0.0007288639133967989
1058,0.0019054765969597665
1059,0.0007554319879037194
1060,0.0006697776791917102
1061,0.000678249451210796
1062,0.0013205337777267027
1063,0.0008197190975634335
1064,0.0008651921678282463
1065,0.0008564549541488075
1066,0.0007919483154957184
1067,0.0005560728826924166
1068,0.0007055664843783726
1069,0.0015124481758466827
1070,0.0004433928702843009
1071,0.00041729669112123874
1072,0.000545731117563368
1073,0.0007539075686418865
1074,0.0008735828374651406
1075,0.0009272427250158568
1076,0.0005049849142837026
1077,0.001731509647456263
1078,0.0005389302751292901
1079,0.0008091499329027702
1080,0.00033637402489265837
1081,0.0005724860164884815
1082,0.0013550107415686572
1083,0.0009010742805169569
1084,0.0007309544842262418
1085,0.0007178591160237606
1086,0.0009028329668032908
1087,0.0006240527875520943
1088,0.0006271090034774023
1089,0.000765173727615338
1090,0.0006561337736402992
1091,0.001517284341104253
1092,0.003138829761296163
1093,0.000705680338749686
1094,0.0005415809757583274
1095,0.0005650998590417937
1096,0.000553429059270775
1097,0.00039510094363214276
1098,0.0005552831024237887
1099,0.0009017610459862239
1100,0.0006877846804533199
1101,0.0007593874894069376
1102,0.0014325057378528055
1103,0.0007508800603988684
1104,0.0006388548266602676
1105,0.0008691798732962035
1106,0.0013663956870626742
1107,0.0006964106410559577
1108,0.0010683810071461205
1109,0.000876846349915728
1110,0.000604771498863332
1111,0.000820962387682033
1112,0.0014520875477409781
1113,0.0008411781319981568
1114,0.0003969666623352351
1115,0.0435601557479671
1116,0.0008328394423759996
1117,0.0011953811934463834
1118,0.0005326809044729036
1119,0.00048551629269924886
1120,0.001257865351367114
1121,0.0004360242740595994
1122,0.0008392875662629742
1123,0.0011863590339898915
1124,0.0007239777241699219
1125,0.0006115023302017168
1126,0.0009227876929159076
1127,0.0005106675945436702
1128,0.0008676621838302014
1129,0.0005013022367908812
1130,0.0007714565667214206
1131,0.001009833850952578
1132,0.00042630321548559877
1133,0.0004003329238307986
1134,0.0008263070634215956
1135,0.00046469557351972834
1136,0.0006837022930377781
1137,0.00048666890421066614
1138,0.0005383309326386512
1139,0.0005819626661823486
1140,0.0007291493324498865
1141,0.0005263210695301852
1142,0.0004386581344077831
1143,0.0006787636554835298
1144,0.0006504608280499175
1145,0.000810003047514808
1146,0.0007941349696594948
1147,0.0015596806249045221
1148,0.0005689418610482878
1149,0.0007052919443521585
1150,0.00068193027457763
1151,0.0005959625706828751
1152,0.0006530171877446955
1153,0.0005905775153398252
1154,0.0006773897228034109
1155,0.000711468504188613
1156,0.0009704957839116427
1157,0.00036304572964694084
1158,0.0006461097905651812
1159,0.0005279078750177783
1160,0.0020717077671996965
1161,0.00042914810165224377
1162,0.0005495816022128594
1163,0.0006838931991679629
1164,0.0007715939926942726
1165,0.0007833228074258056
1166,0.00043380926264756413
1167,0.0006931367922524825
1168,0.0007403885254412112
1169,0.00044709705175573596
1170,0.0009945383035790173
1171,0.0006587350188191081
1172,0.0009032090694364592
1173,0.0006144875450468542
1174,0.00038923616592818227
1175,0.0008290945110608324
1176,0.0008584691707205858
1177,0.0005110020516711772
1178,0.0006171941459420349
1179,0.0006379148355978578
1180,0.0009626640749663657
1181,0.0009615807430152456
1182,0.000466116204257878
1183,0.0006825700253742719
1184,0.00034685617966417084
1185,0.0011805866649856331
1186,0.0008876669674497207
1187,0.0006031824266196268
1188,0.000723906180591022
1189,0.0009846573223771962
1190,0.0004049386103636977
1191,0.0019891191749413567
1192,0.0012253247674608161
1193,0.0008373132191062944
1194,0.0006258563436889448
1195,0.0009825546857293469
1196,0.0008057824175987312
1197,0.0007498848876043029
1198,0.0009987407050085825
1199,0.0008637488354223806
1200,0.00048444615929182493
1201,0.0006643156442624953
1202,0.0007196886154786176
1203,0.0008391776499987807
1204,0.0005913426318820101
1205,0.0004985614357067788
1206,0.0006623775203866781
1207,0.0005004364100180296
1208,0.0007072841041633203
1209,0.0005754376239578418
1210,0.0005273756106127806
1211,0.0006234525898771137
1212,0.0007525099745874631
1213,0.0006109832402810454
1214,0.00048715576588072204
1215,0.0008062132017234907
1216,0.0009926994450189966
1217,0.0005616179572565016
1218,0.0006593617476487961
1219,0.0006441193560450913
1220,0.0005028930232381393
1221,0.0008285016581732549
1222,0.0006037146435406703
1223,0.0009090200039709993
1224,0.0005582968377920558
1225,0.001405393910288486
1226,0.0006420532910043125
1227,0.0007306828841632071
1228,0.0005506806309991264
1229,0.0007686782577162217
1230,0.0006123278804530483
1231,0.0005993037217671217
1232,0.0011323731576370788
1233,0.0004998414425344149
1234,0.0006869603996382345
1235,0.0004910476342375574
1236,0.0011752909042561349
1237,0.0004588993924058929
1238,0.0009942718106290347
1239,0.0006733541998378164
1240,0.0009576158932777879
1241,0.000435265592286231
1242,0.0008884546242092595
1243,0.0007526355212414184
1244,0.0009156055860625382
1245,0.004295121761981219
1246,0.0007709454181077193
1247,0.0008835604697008126
1248,0.0004995471442887844
1249,0.0004945477347383781
1250,0.0005253943216831185
1251,0.0013345510134519993
1252,0.0009739892360379136
1253,0.0006498544007922481
1254,0.0005196120579028853
1255,0.0007226866929817587
1256,0.0007964107305583255
1257,0.0010287181097930985
1258,0.0006235656053033516
1259,0.0011015130509951939
1260,0.0006316937982113254
1261,0.00069744562440502
1262,0.00047003832662948766
1263,0.000907902422974144
1264,0.0007572711467956847
1265,0.0009777559882970972
1266,0.0007666603014315899
1267,0.0009776693797413647
1268,0.0005297526954963639
1269,0.0015075847027619142
1270,0.0008398407492943471
1271,0.0005998055902069485
1272,0.000763639198010881
1273,0.0008093718517210033
1274,0.0008569787163347314
1275,0.0007024376001524416
1276,0.000873017479680903
1277,0.0006182513106198031
1278,0.0005390570774043565
1279,0.0007906093812601502
1280,0.0009705287572535407
1281,0.000966243221773554
1282,0.0006833634019796103
1283,0.0011575574572752249
1284,0.0005869061212149863
1285,0.0006291603606747831
1286,0.0020621495926854134
1287,0.0005599788145170763
1288,0.0006397016164757291
1289,0.0008298446955218059
1290,0.0008384979109306453
1291,0.000577158970591586
1292,0.0009942767067261144
1293,0.0014556555544435821
1294,0.0005073285367648794
1295,0.001580123667419283
1296,0.0011441996009263415
1297,0.0006691537948608472
1298,0.0016128676988110538
1299,0.0005752372410596962
1300,0.0005197517362924892
1301,0.0004092313781820263
1302,0.0004921527898660128
1303,0.0008709254345675116
1304,0.000759028186347168
1305,0.0005610811097631666
1306,0.000505977000278642
1307,0.0007669679864915385
1308,0.0008749287039234738
1309,0.0005762141462028074
1310,0.0008490243199118744
1311,0.0006788285863618276
1312,0.0010136330335457299
1313,0.0006167821829978978
1314,0.0006355102096737232
1315,0.0005257431763095376
1316,0.0006605422798918391
1317,0.0009951594157399078
1318,0.00045853345321587597
1319,0.000761201230257697
1320,0.0010837966399996114
1321,0.0009758145870959761
1322,0.0005154370211413476
1323,0.000935078532370602
1324,0.0012141644650558473
1325,0.0015431496758974595
1326,0.0012306360845907012
1327,0.0007347975222473092
1328,0.0009657298589529832
1329,0.0012090738779866005
1330,0.0005763794502384017
1331,0.0007966519209792684
1332,0.0011335349165099346
1333,0.0007557628732692044
1334,0.0005805436728267278
1335,0.0007907060859505574
1336,0.0007587762584534066
1337,0.0005189316699148153
1338,0.000619063072059446
1339,0.00029212127868834416
1340,0.0006074846446223711
1341,0.0015944400687984204
1342,0.0006686072225129993
1343,0.0007545601359457196
1344,0.0008143585345174316
1345,0.0007584105412593131
1346,0.000553747943233188
1347,0.0006976854694986523
1348,0.000737141540626859
1349,0.000926008518015145
1350,0.0009933883261586116
1351,0.0006646455349517812
1352,0.0007888374636145656
1353,0.001100168383390159
1354,0.0007673802205590155
1355,0.000654653670422805
1356,0.0013050797142315793
1357,0.000680885133769845
1358,0.0006496365649557396
1359,0.0004448402042262092
1360,0.0004637098466138434
1361,0.00100472076784946
1362,0.001553595943409196
1363,0.0007049495712275296
1364,0.0005731339675248816
1365,0.000955099956301491
1366,0.00082922791022517
1367,0.0008482843207038523
1368,0.001046723473368357
1369,0.0007733131866734767
1370,0.0009657298792823525
1371,0.0006236388976348855
1372,0.0007715741497918086
1373,0.0006744524808102489
1374,0.0005907271401661608
1375,0.0007129495106308394
1376,0.0008142564742722655
1377,0.0004932146150306147
1378,0.000491564280768123
1379,0.0004968091976008624
1380,0.000543121201684494
1381,0.0008222477868006743
1382,0.000623631458029288
1383,0.0007697533585986454
1384,0.0005175964606036768
1385,0.0012628195006634348
1386,0.000635899961746683
1387,0.0006515809720486307
1388,0.0006934086207553216
1389,0.001251012147427999
1390,0.0004399033430282545
1391,0.0008636998567806139
1392,0.0007670729512022387
1393,0.0005405937191109404
1394,0.0007024559966952567
1395,0.0005173075288882703
1396,0.0008496085884945394
1397,0.0007433849245100757
1398,0.0009345653275008081
1399,0.00040858297740031677
1400,0.0006941774930475072
1401,0.000904259364301567
1402,0.0010996911637826123
1403,0.0005821437554899826
1404,0.0009397273080937789
1405,0.0009179905508018109
1406,0.0009662809501163492
1407,0.0007148784366908692
1408,0.0006344923610364413
1409,0.0011158900888875874
1410,0.0006007797978498377
1411,0.0003860058342165496
1412,0.0005997224191851942
1413,0.0008139244377923676
1414,0.0004447482019440875
1415,0.000423375356332405
1416,0.0011226743974154752
1417,0.0009218635839233809
1418,0.0008656872415588401
1419,0.0010384931514434337
1420,0.0007295159554754349
1421,0.0004962476998107576
1422,0.0008098569886944444
1423,0.0009624773893744402
1424,0.0003468879244629304
1425,0.000605845955441931
1426,0.0011415309035916754
1427,0.0006660762780384744
1428,0.001118825421322571
1429,0.001037784091330529
1430,0.0007860953423073594
1431,0.0004707491646634942
1432,0.000628339366815816
1433,0.00041336197466775796
1434,0.000812861713778728
1435,0.0010603699509322696
1436,0.000733512190947405
1437,0.0004328467371174832
1438,0.00041557171789402547
1439,0.0005737298555697481
1440,0.0008329771171022583
1441,0.0010554188439299314
1442,0.0006697446497853882
1443,0.0008778810759886749
1444,0.0006767008533431064
1445,0.0005556409312504517
1446,0.00035475023187979697
1447,0.0017030551117624055
1448,0.0012960443954178338
1449,0.0005636647537888383
1450,0.0007594713845452644
1451,0.001483428077720772
1452,0.0007401428442730258
1453,0.0010237739688761568
1454,0.0005069756108591515
1455,0.0005411321270193858
1456,0.0009688321911116766
1457,0.0007106823086694195
1458,0.0008318043841430192
1459,0.000728206621327541
1460,0.0003917048208889933
1461,0.0006955458095113603
1462,0.0010101314102555338
1463,0.0007777832261264421
1464,0.0010251449679098473
1465,0.0013009710057201023
1466,0.0006609913771650142
1467,0.0007771348773435376
1468,0.0010331232870724127
1469,0.0007614459136515593
1470,0.001229709952364233
1471,0.0008419463183032239
1472,0.0006099773102314883
1473,0.0008371947920499881
1474,0.0006000720961937358
1475,0.0008106707924954022
1476,0.0011759960762337297
1477,0.0005961608202457885
1478,0.0006395328871360378
1479,0.0009323391330530081
1480,0.0007780337661079976
1481,0.000632126816950343
1482,0.0009323913616569149
1483,0.0005591296338440468
1484,0.0009010889793227946
1485,0.0009480013391426074
1486,0.0006708647883455647
1487,0.0009292439387243687
1488,0.0007614975572923401
1489,0.0006463779169348506
1490,0.0005529370640383823
1491,0.0012529397520491738
1492,0.0008147872369330242
1493,0.0013135178100261706
1494,0.000726413424784563
1495,0.000926844820957717
1496,0.0007404640453745529
1497,0.000477267454873747
1498,0.0008164843627980901
1499,0.0009414343220131949
1500,0.0006172539594823101
1501,0.0015898751127935132
1502,0.0005852075179401711
1503,0.0009315901339000163
1504,0.001191151382694534
1505,0.0006415122089845378
1506,0.0006462855682159485
1507,0.0008397470721374966
1508,0.00127608571076521
1509,0.0005379442957116105
1510,0.0008026319501368109
1511,0.0014386646133193318
1512,0.0008717080577615866
1513,0.0011594992259208667
1514,0.00102318854627725
1515,0.000719854554589146
1516,0.001001281623397611
1517,0.0015156346147285388
1518,0.001104161645257065
1519,0.0010676410771746966
1520,0.003450081969849916
1521,0.0011302822911621472
1522,0.0007309914452775958
1523,0.0004970895588062726
1524,0.000587846240463288
1525,0.0005135544013959905
1526,0.0005773178249644524
1527,0.0005191385509688942
1528,0.0009696847961804905
1529,0.00042390337054050697
1530,0.0020996476948139282
1531,0.001410679752780948
1532,0.00046579722215231515
1533,0.0009549846689512686
1534,0.0014828753196130273
1535,0.000632889907470415
1536,0.007287992739637816
1537,0.0004337892720970634
1538,0.0008826703505271735
1539,0.0004352880328751446
1540,0.0005869748970775076
1541,0.0007343961473774383
1542,0.0011402971443937686
1543,0.0012102552339934428
1544,0.0007565411548834409
1545,0.0008920388235649867
1546,0.0006820308426275471
1547,0.0014059651343468573
1548,0.0011113254752465555
1549,0.0016595534854283375
1550,0.00042136644426074744
1551,0.0008237130287141273
1552,0.00046549790834020594
1553,0.0005194666545763291
1554,0.0005932955913427146
1555,0.0010212097924488797
1556,0.0014160264958129702
1557,0.0009010388140265961
1558,0.0008117523069643527
1559,0.0008729834285789533
1560,0.0006130692435506602
1561,0.0005170585242987956
1562,0.0005039675400858169
1563,0.0004784949594554295
1564,0.0010143331389355498
1565,0.0008566059719600654
1566,0.04419076802912254
1567,0.0010111470913322994
1568,0.000993405141155224
1569,0.0007540697670908789
1570,0.0009445278144743854
1571,0.0006447846170329508
1572,0.0006724248391114763
1573,0.0005427558209241272
1574,0.0006142304186247821
1575,0.0008127034887492262
1576,0.0007006176817883363
1577,0.0014282641889656609
1578,0.0004812532539425859
1579,0.0006592894158391348
1580,0.0009473573238774019
1581,0.0005010187280768359
1582,0.0004068036721734025
1583,0.0012518739878000485
1584,0.0006414047265473674
1585,0.0005974670272811519
1586,0.0005846819321002094
1587,0.0005897834252732473
1588,0.0006106765851422284
1589,0.0006636583231294823
1590,0.0007917179069560676
1591,0.0008536012633761107
1592,0.0007309478293641205
1593,0.000943782861706639
1594,0.0005600401932606325
1595,0.00048607609142964483
1596,0.0006211177794574683
1597,0.0005250008707258165
1598,0.00039022905013461664
1599,0.0008778642920005577
1600,0.00044118832679671086
1601,0.0006486372147664816
1602,0.001522383102227893
1603,0.0007713208356986714
1604,0.0006378791550160858
1605,0.0007265685260619099
1606,0.0015898713611991442
1607,0.0006628744854502492
1608,0.0004468978811342557
1609,0.0007234201252809668
1610,0.000689297687544964
1611,0.0004941831849737663
1612,0.005014494824439221
1613,0.0006091242298711187
1614,0.00122244316040324
1615,0.0011888701872171574
1616,0.0004919136705933642
1617,0.0010659978762887876
1618,0.0011413842263434952
1619,0.0005131056621386877
1620,0.0021097025802942044
1621,0.00028439454761069994
1622,0.00043279512153590746
1623,0.0006136968287007843
1624,0.0006055037016220907
1625,0.0007610431269093079
1626,0.0006102529428748463
1627,0.0009998276280509606
1628,0.00058660207922969
1629,0.0004633084365312621
1630,0.0007174284595011884
1631,0.0006533783193810753
1632,0.0006554036479047178
1633,0.0005524058447191707
1634,0.0005154999449461342
1635,0.0008475219292333559
1636,0.0005145438882755819
1637,0.0009627329100876825
1638,0.0008119227477359167
1639,0.0005725049616220005
1640,0.0005784307035867353
1641,0.0011089088454996842
1642,0.0003598914160416023
1643,0.0005354505260059777
1644,0.0007396945745936739
1645,0.0009375370389910404
1646,0.0007659547417475114
1647,0.0004788291853002814
1648,0.0006760794766663284
1649,0.0005514609977879904
1650,0.0007707640255386214
1651,0.0007323669095054527
1652,0.0009561045839652102
1653,0.0007555553770281415
1654,0.0007768793797252258
1655,0.000973123464376376
1656,0.0007312398650619691
1657,0.0011153115556271388
1658,0.0015192652968517995
1659,0.0004251943254436292
1660,0.000972364804096463
1661,0.0006867821715822237
1662,0.0007887008508166228
1663,0.0010261609389607231
1664,0.0007506930129154151
1665,0.0012258309578838153
1666,0.0006257890728017408
1667,0.00044578779051144066
1668,0.000593035779334224
1669,0.0008770784237784041
1670,0.0005586645578865335
1671,0.0005089948766921647
1672,0.0006329910384793555
1673,0.000545168353703749
1674,0.0008102541124013104
1675,0.0007690651315790755
1676,0.0006042721812786334
1677,0.0008853564767161481
1678,0.0006637033097027057
1679,0.0005195813432219118
1680,0.00041721713311653315
1681,0.0014411769024626952
1682,0.0004350100589988198
1683,0.0005116600714940125
1684,0.000506565159181682
1685,0.0005983282106080745
1686,0.0008314572445697332
1687,0.0006528148630997951
1688,0.0007674333356355505
1689,0.0009334310396280314
1690,0.0013028485700866304
1691,0.0007862718248828727
1692,0.0007169010477597713
1693,0.0008325359432686386
1694,0.0008296648703321758
1695,0.00048041323158607964
1696,0.0005179267535661922
1697,0.0006609521271869412
1698,0.0005965852343244197
1699,0.0010454561869467159
1700,0.0010071523064849655
1701,0.0009762212748877708
1702,0.0017514965910544408
1703,0.0007484065821662076
1704,0.000742626124043594
1705,0.0009789768692929704
1706,0.002595038079772456
1707,0.0008434659615225665
1708,0.0006422533822733369
1709,0.0008594343208543601
1710,0.0006325685264068369
1711,0.0012147263129858312
1712,0.0009226472538435958
1713,0.0010850278727491756
1714,0.0004793317841343745
1715,0.0005638189924763482
1716,0.0006924139943443328
1717,0.0012082763718319004
1718,0.0005874879692515985
1719,0.0007622530495115526
1720,0.0006728041852744803
1721,0.0006467154174579785
1722,0.0005232551904842306
1723,0.0007033672590987417
1724,0.0007646745312274487
1725,0.00040461024977279236
1726,0.04056788842513822
1727,0.0005872625883270798
1728,0.0008279229985731603
1729,0.0008349782380064752
1730,0.001092412146240788
1731,0.0006197019079622641
1732,0.0006970177534043447
1733,0.0006943316056339372
1734,0.001041002399426678
1735,0.00041694855960681173
1736,0.0006416677987944005
1737,0.0011055944651685364
1738,0.0005567410634369414
1739,0.0005080316626225866
1740,0.0006552562017459515
1741,0.0011414436517847714
1742,0.0007439436746292537
1743,0.0006648128494006386
1744,0.0005310324397301096
1745,0.00027006171321387835
1746,0.00065894563102007
1747,0.0010832400774926176
1748,0.0005168423952631559
1749,0.0010816223764359288
1750,0.00052410125678084
1751,0.0005729829200911853
1752,0.0005799637468618117
1753,0.0005906054770179518
1754,0.0012676984406969336
1755,0.00047505972075244786
1756,0.0008073149487674455
1757,0.0005600509789035165
1758,0.0011043451714649786
1759,0.0007113634181130664
1760,0.0005471749391813044
1761,0.001057755972958923
1762,0.0008462327671951937
1763,0.0010430434226603503
1764,0.0009417104545232732
1765,0.0007208687634279931
1766,0.0005888827947085722
1767,0.0005966986413319458
1768,0.0008286533266195989
1769,0.0007516684301528563
1770,0.00048820874850169147
1771,0.00197363118963095
1772,0.0006889930010848658
1773,0.0005064504358032698
1774,0.0004929757574325144
1775,0.0010487762830552899
1776,0.0006680344292859236
1777,0.0005499900800477705
1778,0.000639390266022294
1779,0.0009355397032324987
1780,0.0023494979392826363
1781,0.0005511509176598691
1782,0.0005000138417092342
1783,0.0009710553890059652
1784,0.0004518219121629718
1785,0.0003107139542899112
1786,0.0010370823835047383
1787,0.0006355005207030855
1788,0.0008278714632524352
1789,0.0010055620311438366
1790,0.0005310774613840124
1791,0.0004778670109989659
1792,0.0012414213125394862
1793,0.00037899781669264846
1794,0.00046574721012774867
1795,0.0007139193353764721
1796,0.0005542518134515727
1797,0.0011645446288647196
1798,0.0010367326199956814
1799,0.000779371682790741
1800,0.00046981493781710683
1801,0.0006592393242730836
1802,0.0011729874378390709
1803,0.0015801827461657753
1804,0.0015237844278812624
1805,0.0007169679206904532
1806,0.0008303529403553654
1807,0.0016256389111337238
1808,0.0007998610538133919
1809,0.0006545453966946021
1810,0.0011641714542866767
1811,0.001160212344540513
1812,0.0006214186409949398
1813,0.0008369533629472488
1814,0.0012749114430468382
1815,0.0007260818064849965
1816,0.0005197225579178158
1817,0.0008161585600515747
1818,0.0005089457885621078
1819,0.0007244018388211029
1820,0.0008941253825298304
1821,0.0010067367074396922
1822,0.0008823682371549427
1823,0.0008541667533479644
1824,0.0006429933711762728
1825,0.0011082385009760652
1826,0.000666725175186661
1827,0.0011974110278301197
1828,0.0009616407299572089
1829,0.0007125927223847909
1830,0.0006268494983694215
1831,0.0004204802158922749
1832,0.0004427276636813903
1833,0.0011751137134341178
1834,0.0006336796521853471
1835,0.0010827810157262867
1836,0.000711854902384311
1837,0.0006416992818235443
1838,0.0007767689602744557
1839,0.0011861540386543699
1840,0.0004807413802852039
1841,0.0005618415235614773
1842,0.0006773368690635544
1843,0.0007909547432531849
1844,0.0005987616366264891
1845,0.0009014724430732327
1846,0.001106866683392162
1847,0.0008743365010775037
1848,0.0010284738393144283
1849,0.0009182295559004245
1850,0.0014081368283862055
1851,0.0007816435889513825
1852,0.0010052397680925002
1853,0.0012994755934566192
1854,0.0009239249818555542
1855,0.0005917378553901066
1856,0.0005732988453844883
1857,0.0006067245584450569
1858,0.0007011261379074875
1859,0.0012732507402308253
1860,0.0006786724391671997
1861,0.000514595594044085
1862,0.0008707010133972394
1863,0.0005545426264706356
1864,0.0003934474982028789
1865,0.0004525742595613016
1866,0.0007866532797459966
1867,0.001100450915787015
1868,0.000804940108235461
1869,0.0007867148518227563
1870,0.0005037503330555626
1871,0.0006897510441724197
1872,0.000980512508747034
1873,0.000608999205422503
1874,0.0009323651718146234
1875,0.00043930328474740517
1876,0.0007267775864528176
1877,0.0004567031022146741
1878,0.0009103324357963365
1879,0.0010576788574858656
1880,0.0005184224598463346
1881,0.000612392934338232
1882,0.0009552172426549463
1883,0.0006693237248064997
1884,0.0006857555733140023
1885,0.0005689618702686643
1886,0.001253788483787624
1887,0.0008968380676180585
1888,0.0005193573765240119
1889,0.0006630877089812349
1890,0.0007335331381711182
1891,0.0008464894235888968
1892,0.0006976546163640621
1893,0.0007851322315049446
1894,0.0008033332068308294
1895,0.0014893773984236372
1896,0.0006449190879573428
1897,0.0004886302003478629
1898,0.0005061640533934325
1899,0.001022803269426368
1900,0.001403477445516588
1901,0.0005623922694419457
1902,0.0005323400210905355
1903,0.0005493170795826102
1904,0.0005468925286302607
1905,0.0005345495099536192
1906,0.000529982351860913
1907,0.0005969006728074924
1908,0.0010757197540615822
1909,0.001021696920592379
1910,0.0008702905453432349
1911,0.0006676292829411577
1912,0.0006240488761895854
1913,0.00048451646599927047
1914,0.0008480992085727534
1915,0.000802999219532783
1916,0.0005619791250721422
1917,0.00037150621824902586
1918,0.0004138597074439653
1919,0.0006932144422215753
1920,0.000806648522035863
1921,0.0006741860733690427
1922,0.0005652940671120579
1923,0.0006782902185925096
1924,0.0007313080758844857
1925,0.0005975304770798449
1926,0.0004647951928319594
1927,0.0005350671451144756
1928,0.0007771174857944379
1929,0.0005516130931487997
1930,0.000516087533274115
1931,0.0005962515760483128
1932,0.0005629906569773241
1933,0.0006390310177002411
1934,0.0009740416683996275
1935,0.0006332423606476211
1936,0.0007470728941220796
1937,0.005513322399511355
1938,0.0005736700557214019
1939,0.0006163345266249758
1940,0.0010358964511578623
1941,0.0008226310300047863
1942,0.0008730799370390895
1943,0.0005480072480717389
1944,0.0010542882540330494
1945,0.0005700743308608022
1946,0.0010876243830334387
1947,0.0004704712575319424
1948,0.0006716534321752817
1949,0.0008727332946334748
1950,0.0013766090241871566
1951,0.001319331501658068
1952,0.00044012224890736687
1953,0.0004158969320068727
1954,0.0007598854345809773
1955,0.0009534726307426647
1956,0.0011391971199234147
1957,0.0008800751835491346
1958,0.000552248324614995
1959,0.0006711730958540906
1960,0.0007921708175144876
1961,0.00130307574311828
1962,0.0004901686747301146
1963,0.0007284368850582818
1964,0.0012738926742496884
1965,0.002368763507356489
1966,0.0007346467749272439
1967,0.000915276361336867
1968,0.0009397080529033703
1969,0.0007393096995881678
1970,0.0006010756905551861
1971,0.0018631431678671026
1972,0.0007557093576912568
1973,0.0008140888515817957
1974,0.0004851319770825106
1975,0.0007177006557732961
1976,0.0005303514514995848
1977,0.000854336401412958
1978,0.0012875504443121864
1979,0.0008361267312431191
1980,0.001243484800227527
1981,0.0008412159154209998
1982,0.000638819789318203
1983,0.00046297660030313715
1984,0.00047852517001694544
1985,0.0006601198790062106
1986,0.0005356473429329589
1987,0.0008017253359190741
1988,0.0006164575360483517
1989,0.0010272705459504448
1990,0.0012801754991925368
1991,0.0008338123308517301
1992,0.0011316427855914033
1993,0.0008002591197283959
1994,0.0003630973936197285
1995,0.0007581911538053625
1996,0.0007153325078936364
1997,0.0008750550612775689
1998,0.0009223458443894022
1999,0.0005716692443800849
2000,0.0013615880028458316
2001,0.0006102605063705968
2002,0.0007748309476462723
2003,0.0006677471066459003
2004,0.0008126461577555969
2005,0.0005111922597688577
2006,0.0009944076354806305
2007,0.0013499953287190371
2008,0.0006925545043378547
2009,0.0007823290647703794
2010,0.0008854418885689814
2011,0.0010673136406003597
2012,0.000558332743905858
2013,0.0007722807868870955
2014,0.0004382830939066662
2015,0.0009210244565362599
2016,0.0006951420855931989
2017,0.0006944643883860978
2018,0.00046038682212166216
2019,0.0011546777272510944
2020,0.00110985265780056
2021,0.0006264467423864636
2022,0.00076124803951826
2023,0.0003415108348013563
2024,0.000935260721559193
2025,0.000795846761623437
2026,0.0011649113888035018
2027,0.0004604051336224661
2028,0.0006363304363469459
2029,0.0005377224953186949
2030,0.0014801982347328498
2031,0.0019006235877235364
2032,0.00044032918358310444
2033,0.0011649025267204027
2034,0.0007129946457875387
2035,0.0007211714229743404
2036,0.0005137548311642988
2037,0.0007673866563170182
2038,0.0012867106499899234
2039,0.0006382727633424474
2040,0.0005451025143165416
2041,0.000543633978904068
2042,0.0007645676929164386
2043,0.0004182307493229776
2044,0.00032671788357602346
2045,0.0006436056491088744
2046,0.0011348423108703861
2047,0.0008232832349769496
2048,0.001125444738274317
2049,0.0004804975043681314
2050,0.0010024406341883154
2051,0.0004891169760454333
2052,0.0006871167948149825
2053,0.0007202769557918738
2054,0.0011312334177721874
2055,0.00030930193954246434
2056,0.0008919249640758551
2057,0.00040435725625169124
2058,0.0013660400349271035
2059,0.0009017467886229688
2060,0.0011204844767473494
2061,0.0006179655150701181
2062,0.0011748171325730878
2063,0.0007132133603365012
2064,0.0007644114337511761
2065,0.00035971231805880357
2066,0.00039902857993519774
2067,0.0006049702274583548
2068,0.0016861880630885976
2069,0.0014921227695188614
2070,0.0006258474026182842
2071,0.0007853691743327167
2072,0.00043583013014788336
2073,0.0005713269085923878
2074,0.0005961401483593707
2075,0.00043204472840414454
2076,0.0006181331789378686
2077,0.0004884514385585447
2078,0.00042150698950228343
2079,0.0014557560221066363
2080,0.0006858422120795763
2081,0.0008518180339694258
2082,0.00085231151299889
2083,0.0011003429486764432
2084,0.0006163796988956514
2085,0.00045685730693945803
2086,0.0005159943489485504
2087,0.0006372011706758043
2088,0.0010066906648233235
2089,0.0004849025918203145
2090,0.0007896735191906734
2091,0.0012667842069286654
2092,0.0013512446217760043
2093,0.0010014817740104823
2094,0.0009975313459129776
2095,0.0006341382666125372
2096,0.0009128773875354688
2097,0.00031648050899915983
2098,0.0005429883779384648
2099,0.001411704380976454
2100,0.0007231693512649699
2101,0.0008878373872954401
2102,0.0022252119325825103
2103,0.0007151809223698875
2104,0.0006612606710088753
2105,0.00047724515309138414
2106,0.0006545682998973445
2107,0.0007861544971146055
2108,0.00039726742769029093
2109,0.0008501523234756267
2110,0.0009114650113590115
2111,0.001077533998834706
2112,0.0007956164084449598
2113,0.0005559057351401842
2114,0.0009389242762966466
2115,0.001371827165207402
2116,0.0009420000996221649
2117,0.0007426975451764129
2118,0.0007076593618008079
2119,0.0009396316250303804
2120,0.0005343847630209049
2121,0.0006546347708645144
2122,0.000716040444591966
2123,0.0006303308192528126
2124,0.0005684773272772198
2125,0.002010302495302787
2126,0.0009003511813722774
2127,0.0006735780045702054
2128,0.0009288924990906464
2129,0.0005038405594370418
2130,0.0005746101718436565
2131,0.0007883019728412888
2132,0.0007177910063320956
2133,0.0008820257762340712
2134,0.0007316380297030469
2135,0.0009514438783110651
2136,0.0004213884404842932
2137,0.0006625784892686521
2138,0.0008411608849212897
2139,0.00045346326896139404
2140,0.0012915362054592813
2141,0.0003773506338917331
2142,0.0009419792344118088
2143,0.0008866709360899108
2144,0.0009001460044345594
2145,0.0006719590414157352
2146,0.0005165649076235304
2147,0.000801994284887199
2148,0.0005225430939052822
2149,0.000796842471397986
2150,0.001362269256220656
2151,0.0005098453112057794
2152,0.0010868130540296539
2153,0.00047782406606765516
2154,0.0006347465863562876
2155,0.0011379715463136174
2156,0.0007025640167200185
2157,0.0006950791606904198
2158,0.0008888761242001224
2159,0.000768150082309448
2160,0.0004902487277509834
2161,0.0004202178722477611
2162,0.0007450869444682956
2163,0.000862395954523174
2164,0.0014809266868917375
2165,0.0008072562777819481
2166,0.001284311289810283
2167,0.0026372259083952136
2168,0.0007337938471059833
2169,0.0006405762712186338
2170,0.0006560111955743337
2171,0.0007099024114022921
2172,0.0007140278367951151
2173,0.001001358715434378
2174,0.00039952441154613745
2175,0.0008934990221596333
2176,0.0004233036601438022
2177,0.0015473065856841113
2178,0.001012690144439813
2179,0.0006807363111539884
2180,0.0015412611890262158
2181,0.0006172399757720717
2182,0.0003134345994263928
2183,0.0007552992346056517
2184,0.0006720829797284165
2185,0.0003923908836320101
2186,0.0008392996248760734
2187,0.0006037609554388552
2188,0.000952325478516432
2189,0.0009508046110732445
2190,0.00046284942543012975
2191,0.00045389004079454686
2192,0.00046437960919136945
2193,0.0006089328251039383
2194,0.0007341096098598685
2195,0.0008219290970207615
2196,0.0008750019770578741
2197,0.0012752037982997407
2198,0.0008290391851607083
2199,0.0004397254990098973
2200,0.00044502735884816415
2201,0.0002995413918235072
2202,0.000772288621409527
2203,0.0010906260306595998
2204,0.0007162261734381334
2205,0.0006195425598213571
2206,0.0005504415960960209
2207,0.0005519652693467213
2208,0.0007748915776627144
2209,0.0007892780388913038
2210,0.0004944870897345152
2211,0.00039172400736214315
2212,0.0008338959632623684
2213,0.0004351067942841728
2214,0.0007692052482370888
2215,0.0006340924404487453
2216,0.0010318444028366335
2217,0.0006528121630359329
2218,0.000679388931694193
2219,0.00044631918636712814
2220,0.0007870841012585432
2221,0.0009865320899554713
2222,0.0005762152288070145
2223,0.0004959102668161118
2224,0.0007171841451056709
2225,0.0009292183371579102
2226,0.000694373373540422
2227,0.0006221573000655843
2228,0.000518066360311962
2229,0.0010328494003641355
2230,0.0010431166633946617
2231,0.000496524613353667
2232,0.0012549892694095227
2233,0.0008249202627088221
2234,0.0006714037130558104
2235,0.000846070468204833
2236,0.0006517420273704489
2237,0.0006379086285108432
2238,0.0006415890499478662
2239,0.00058720113479291
2240,0.0006937636224099377
2241,0.00043019255708054405
2242,0.0008090890806604702
2243,0.0006919347692910645
2244,0.0003919023420945891
2245,0.001104541225025921
2246,0.0007346132273746971
2247,0.0010638655788214586
2248,0.0005955973872463677
2249,0.0005924071185731731
2250,0.0008266067466264808
2251,0.0016166229366211915
2252,0.001779807962602638
2253,0.0005580473877862531
2254,0.0006080264086565525
2255,0.0005824466432592802
2256,0.00035685581605843133
2257,0.0008423821847457873
2258,0.0010219728167267168
2259,0.00043084622158326793
2260,0.0005253012050347661
2261,0.0004519642483079063
2262,0.0008086233020733317
2263,0.0006137578162843221
2264,0.0008285334560192532
2265,0.0007089110905778943
2266,0.000977992706858115
2267,0.0005556009438087713
2268,0.00047055365204866974
2269,0.001100556110434155
2270,0.0006021175860026676
2271,0.0006530058258819603
2272,0.0005825878232462974
2273,0.0009450620662183518
2274,0.0004184004391820939
2275,0.0005834615633762287
2276,0.001223659390410076
2277,0.0006654800405231788
2278,0.0006955956876966099
2279,0.0008184338978858123
2280,0.0005258342497350922
2281,0.0012132515326973314
2282,0.000676722034701154
2283,0.0003027552726243684
2284,0.0005711343835423343
2285,0.0004710264112436163
2286,0.000486731049387606
2287,0.0008286293532826677
2288,0.0014219743122693726
2289,0.0007576561566354331
2290,0.0006604889831578042
2291,0.0005951835650954291
2292,0.0008399539671649958
2293,0.002018832987014263
2294,0.0007624037131478102
2295,0.0005060951522548226
2296,0.0007062733052771501
2297,0.0010364446812671639
2298,0.001037591731173124
2299,0.0007807798059408899
2300,0.00038900118752352317
2301,0.0008603365191749741
2302,0.0005649344012062488
2303,0.0009300006914874314
2304,0.0012655982442752178
2305,0.0011360924249303676
2306,0.0006868818361809422
2307,0.00042163918174295973
2308,0.00041728459530179877
2309,0.0006884334962204598
2310,0.0007539026047072513
2311,0.0007915701160663015
2312,0.0006091019870513722
2313,0.0005672724789158694
2314,0.0007244173376474418
2315,0.0005099210929667375
2316,0.00199573334236814
2317,0.0007004255940526955
2318,0.0007609840958666718
2319,0.0003832674557640868
2320,0.0004479332334539972
2321,0.000415708728459194
2322,0.0006822713784459337
2323,0.0007183251208190903
2324,0.0007705625922387188
2325,0.0013834320383174026
2326,0.0008233629507335508
2327,0.0004754009582759305
2328,0.0007714017908247735
2329,0.0006663741648815411
2330,0.00042085190383571973
2331,0.0010046853521763566
2332,0.0002809000388638965
2333,0.0008278572734183078
2334,0.0003969897699751267
2335,0.0007817318873154098
2336,0.0009307992868550529
2337,0.0010064272630382041
2338,0.0007500930180854054
2339,0.0007662922484209915
2340,0.001232015643929698
2341,0.0009172388375168252
2342,0.0005467555290078211
2343,0.0006030138388976776
2344,0.0011501299413450828
2345,0.0005929580709266968
2346,0.000975646312516893
2347,0.0005995867559013597
2348,0.0006127984499105744
2349,0.0006935205235338845
2350,0.0006035554465592157
2351,0.00042214558349193686
2352,0.0006084163555818225
2353,0.0006244175950389194
2354,0.0007535744611140748
2355,0.0005654734333557279
2356,0.0005297850490586084
2357,0.0006495781738910698
2358,0.0008341998724682018
2359,0.0008035711172961843
2360,0.00035306514124616847
2361,0.00040554069467951446
2362,0.0010278701402488678
2363,0.004222434399797857
2364,0.00036021067656916557
2365,0.0007477885586452388
2366,0.0007803977549301585
2367,0.000674448304642356
2368,0.0004988207124060123
2369,0.0005991812360638124
2370,0.0006471743350905101
2371,0.0010208175986908105
2372,0.0007249071076990285
2373,0.0011756271563000311
2374,0.0009131872799834889
2375,0.0007179046020889436
2376,0.00047224093352986487
2377,0.0009273479534553836
2378,0.0005390945529618339
2379,0.0006863980533369845
2380,0.0006515198535000443
2381,0.0005465044675265314
2382,0.0009189825386865841
2383,0.0009070855144387386
2384,0.0007553316986261395
2385,0.0005090999850274798
2386,0.0009598632732842365
2387,0.0005264036021730589
2388,0.0007007964956612742
2389,0.0010495608066104414
2390,0.0009511480982129512
2391,0.0006614034416567915
2392,0.0005446235653036508
2393,0.0012904422033733097
2394,0.0004578651507492476
2395,0.000761526262051277
2396,0.0007260617896790075
2397,0.0005706895516185655
2398,0.0004618252490491916
2399,0.0005860883689590894
2400,0.0006685759444888212
2401,0.000933846508640189
2402,0.0008280953315624751
2403,0.0005659371632331992
2404,0.0005042758750329086
2405,0.0007898463155921797
2406,0.0011733263708963153
2407,0.0010953230506688969
2408,0.00044684246784929883
2409,0.0005912839483600833
2410,0.0011296261196076223
2411,0.000824051181756243
2412,0.0004912137504767062
2413,0.0009520820986353119
2414,0.00048460372863942067
2415,0.0008525541879893757
2416,0.0010561635564503911
2417,0.0006181153199612752
2418,0.0006822062578142904
2419,0.0007853146238857198
2420,0.0006501866497369094
2421,0.0004972790680320413
2422,0.0010605500685687038
2423,0.0008005294313398521
2424,0.0008500242419755483
2425,0.000500780193124276
2426,0.0007910765311194642
2427,0.0008021754507932959
2428,0.0006123894920857343
2429,0.0003965961394985478
2430,0.0005134212347417377
2431,0.00032076199788463823
2432,0.0004089382581371542
2433,0.0010076853356772398
2434,0.0005521403414531696
2435,0.0007460607307034583
2436,0.000469786722558047
2437,0.00047431442560181577
2438,0.0007386424678319574
2439,0.0007367898773637471
2440,0.0007465285433665367
2441,0.0005184544250097484
2442,0.000713404203833348
2443,0.0007426934212791835
2444,0.000585354259999585
2445,0.0008711399825386255
2446,0.0004455621690501173
2447,0.0006230776726030509
2448,0.0005743880228004503
2449,0.0009074784119836
2450,0.0014077937489398891
2451,0.0006711501928799494
2452,0.0008531162800222745
2453,0.0007275803085878599
2454,0.0012476145503265141
2455,0.0005250855059054977
2456,0.0011279994441921828
2457,0.0005484085701824602
2458,0.0005405380950313582
2459,0.0007952703131613495
2460,0.0006085196275173916
2461,0.0006199862252070779
2462,0.0007589867238031076
2463,0.0005347235910441311
2464,0.0005887380682391681
2465,0.0006158122589935072
2466,0.0012506071485644196
2467,0.001229455885172409
2468,0.0005777082946185699
2469,0.0008135009179994937
2470,0.0005250769998547075
2471,0.0006352958624737041
2472,0.001372361265675291
2473,0.0007531934940785231
2474,0.0011738325221693398
2475,0.0007890704692135347
2476,0.0005144202823884675
2477,0.0009034152359829287
2478,0.04334204272654123
2479,0.0009278952645135941
2480,0.0006198255138467253
2481,0.0005413249331071139
2482,0.0005157607873480552
2483,0.0006922216001806712
2484,0.000495031894498771
2485,0.0007098996006104939
2486,0.000912538903530967
2487,0.0004049558988438602
2488,0.0006687341882207372
2489,0.0006726098762132011
2490,0.0005618811703112806
2491,0.0005903921337880889
2492,0.0005452268501523498
2493,0.0010268702498711824
2494,0.0007204365115437146
2495,0.0007042729938187126
2496,0.0007278214094358869
2497,0.0016029797432743158
2498,0.0008137746720358123
2499,0.0007639643474553001
2500,0.0005707183399895096
2501,0.0006110811801663223
2502,0.0005308912451024076
2503,0.0008846765002659277
2504,0.000806873801794568
2505,0.0007437849884763411
2506,0.000746584058426645
2507,0.0005045072067814524
2508,0.0007021253933137637
2509,0.00042826299169523217
2510,0.0004213298363672034
2511,0.0008855901514397904
2512,0.0007169833949036972
2513,0.0017635850055457804
2514,0.0009314760640408816
2515,0.0006222183764305731
2516,0.0006263423804250196
2517,0.0004321940506107617
2518,0.0009561717775249282
2519,0.0009767985192788025
2520,0.0005028895318537688
2521,0.0005624692963027656
2522,0.0005931015981107435
2523,0.0006666193181188245
2524,0.0007517868410808646
2525,0.0006931749827320588
2526,0.0004346102361923378
2527,0.0006700017771047464
2528,0.000708211719575315
2529,0.0006251358213404205
2530,0.00048316179184850427
2531,0.0007954041385025003
2532,0.0011144430829446643
2533,0.0007623635912242817
2534,0.0007630249677412469
2535,0.0009541726077303808
2536,0.0006937443796959399
2537,0.0006084389085754761
2538,0.0006525229532756099
2539,0.0009165020446422735
2540,0.000444460861847967
2541,0.0005019695625241014
2542,0.0003907617549100536
2543,0.0005665666774084405
2544,0.0005871763644599881
2545,0.0005264319901071637
2546,0.0010346994896864832
2547,0.0005316411333622799
2548,0.0007050279065949675
2549,0.0007605011966848429
2550,0.0006099823249733247
2551,0.0008526723608236401
2552,0.0005001632684584897
2553,0.0007343990750544115
2554,0.0008343002741718515
2555,0.0003972913575949653
2556,0.0007086382979887519
2557,0.0004932859515239431
2558,0.0007309967906120745
2559,0.0004207884050920043
2560,0.0015058964589531225
2561,0.0005845418979678743
2562,0.0009460992490988463
2563,0.0006143771690303671
2564,0.000726744826473964
2565,0.0007112870273874685
2566,0.0011411849791208232
2567,0.0008858340157639381
2568,0.0008212217891665508
2569,0.000397725719663577
2570,0.000991242036558496
2571,0.0008700306233879146
2572,0.0005725088109284594
2573,0.000836541100107635
2574,0.0005724877779121225
2575,0.0004963655245120764
2576,0.0006582991747844461
2577,0.0007090643192052831
2578,0.0007422101647427222
2579,0.00037099975711178375
2580,0.0007942535572186035
2581,0.0006488808475247459
2582,0.00044914811388711455
2583,0.0009553623824786954
2584,0.0008448288094467794
2585,0.00039121621233476517
2586,0.0008430733565512132
2587,0.000559819165994081
2588,0.0009253681034858998
2589,0.0008959336462811158
2590,0.0004829204770668874
2591,0.0010425501491406815
2592,0.0005983009124504574
2593,0.0009565786002616281
2594,0.000826558578550304
2595,0.0005861217262820592
2596,0.000521165421056127
2597,0.0004659963067550975
2598,0.000677645470526798
2599,0.0006595213885014032
2600,0.0009531496913512719
2601,0.0013624481961969565
2602,0.0008172195211447598
2603,0.0007392954832563829
2604,0.0006492433342670089
2605,0.0006294971431199696
2606,0.012645696776094242
2607,0.00033231316628790206
2608,0.0009451874841302942
2609,0.0006091255276458526
2610,0.0008876514680537518
2611,0.0005631700307069882
2612,0.0003622009659789852
2613,0.002996352185224183
2614,0.0006886026451786134
2615,0.000905851932995237
2616,0.0006874334985145923
2617,0.00039647875708824585
2618,0.0006947684181692787
2619,0.0007319530479423172
2620,0.0010422372985840244
2621,0.0010604399734973763
2622,0.0007203496189683045
2623,0.0007568562375016278
2624,0.0007688495869165307
2625,0.0007683637558513587
2626,0.0010207175936343326
2627,0.0005995082108981784
2628,0.0007238774520301712
2629,0.0005784396897241102
2630,0.0007458443939479612
2631,0.000427033715232309
2632,0.0007981876496852027
2633,0.0005043502899006117
2634,0.0009738759350928997
2635,0.0010129214108010915
2636,0.0010302367950214002
2637,0.0005320313454988529
2638,0.0008117369484828831
2639,0.00049092295118953
2640,0.0012356069759794637
2641,0.0006131937029988986
2642,0.0006068035295328367
2643,0.0006713317841125829
2644,0.0007331517021469928
2645,0.0007094516540620391
2646,0.00059519708470627
2647,0.0007623321225159709
2648,0.0007246968792621842
2649,0.0004541019851930902
2650,0.0008254486270067275
2651,0.0007217847421018167
2652,0.00044154933577430545
2653,0.00036859428868828094
2654,0.0006662749751053048
2655,0.0006269789043225886
2656,0.000588682825576877
2657,0.0006780127552211635
2658,0.0006329945240754737
2659,0.0006141922306125685
2660,0.0009143051244990769
2661,0.001002850337633217
2662,0.0010575840841080524
2663,0.0006608581853841647
2664,0.0014710823730083892
2665,0.0010363975734117032
2666,0.0004817145047261339
2667,0.0015703985231725313
2668,0.0004013121850297424
2669,0.0011719138000047696
2670,0.0009343138886501267
2671,0.000855479345442273
2672,0.0009128787173913615
2673,0.0012989719892603057
2674,0.00086783432126125
2675,0.0004857466180235736
2676,0.0005413707903790549
2677,0.0014556327485724056
2678,0.0005747085616427296
2679,0.0006202627565431973
2680,0.0005395853518041405
2681,0.000505918770547288
2682,0.0012037064447850486
2683,0.0009823669950934084
2684,0.000737333964305988
2685,0.0007208838283128371
2686,0.000529141210179602
2687,0.0004969651492565529
2688,0.0004310105821205065
2689,0.0006104471642373924
2690,0.0008213094090440844
2691,0.0006406983423161322
2692,0.00034410805942031267
2693,0.0007298447215837728
2694,0.00038739384070300464
2695,0.0011325738327762943
2696,0.0006198041091863325
2697,0.0005322044309095289
2698,0.00046924351165072124
2699,0.000590777656110503
2700,0.0009048188039672165
2701,0.0015161403818309694
2702,0.0007167059030729213
2703,0.0007206661974575741
2704,0.0004927126841764551
2705,0.00024022017505742992
2706,0.0005239449773366412
2707,0.0007943254057967311
2708,0.0004949201582834717
2709,0.0006347695904477337
2710,0.0005380040732570428
2711,0.0003902121489048705
2712,0.0008076836821787602
2713,0.000661235796846614
2714,0.0019259786056956523
2715,0.0003548741762335426
2716,0.0013629813283318189
2717,0.0005261631338710272
2718,0.0009328970552002781
2719,0.0009384286514109113
2720,0.0007697465052356866
2721,0.0009781933016529928
2722,0.0008521206020234662
2723,0.0007519976606066643
2724,0.0009623055068445415
2725,0.000748893957264165
2726,0.000656546374112604
2727,0.0005122984157776046
2728,0.0005480827123409043
2729,0.000767865878991387
2730,0.00101173038299484
2731,0.0005003472785326431
2732,0.0007472446376821062
2733,0.0004735493806548713
2734,0.000965719725717689
2735,0.0008554090670224293
2736,0.0007407536345898126
2737,0.0008359666386259111
2738,0.0006540014570670201
2739,0.001797313667082273
2740,0.0008732547493895558
2741,0.0006463392530010535
2742,0.00094032981231843
2743,0.0007395725118314132
2744,0.0008477801353417167
2745,0.000653603813878184
2746,0.0008676183460834997
2747,0.00036594021886314856
2748,0.0017068965651799305
2749,0.000821202890166493
2750,0.0004586019444083643
2751,0.0005951486570982058
2752,0.00122378184772603
2753,0.0009250197720384117
2754,0.0010828095794763242
2755,0.0008600618606969684
2756,0.0008421203221266272
2757,0.0006208669560458326
2758,0.00094534416131918
2759,0.0007598049662544608
2760,0.0005751107050847063
2761,0.0016990773129114236
2762,0.0006695861080852646
2763,0.0014958151477396982
2764,0.0012595576151627802
2765,0.0010166795616629038
2766,0.0004218177060823775
2767,0.0005952101972202769
2768,0.0008463123220649815
2769,0.0003972791184579544
2770,0.0004804583243816062
2771,0.0004992523868948936
2772,0.0008775744215028925
2773,0.00037174365334745546
2774,0.0007078703821389827
2775,0.0016821948527087783
2776,0.0008714265499577812
2777,0.0007791736752224733
2778,0.0006148981006095128
2779,0.00039007436281270557
2780,0.002878586800648928
2781,0.000783197158791617
2782,0.0007246200734835424
2783,0.0004108914394370658
2784,0.0016462049397878644
2785,0.0012991031552321366
2786,0.0005515411251443334
2787,0.0010808811516123784
2788,0.0004305156399734943
2789,0.0006112680708597978
2790,0.001124886029602185
2791,0.000560700911133368
2792,0.0007638487087748408
2793,0.0007546026169255384
2794,0.001010432053271786
2795,0.0009481988275166905
2796,0.0006956347374709941
2797,0.0004259388694290849
2798,0.0005437205665672268
2799,0.0010352824138496963
2800,0.0005232820619578083
2801,0.0005214123537702738
2802,0.0007011159418361755
2803,0.0012079248506701125
2804,0.0009617896805658897
2805,0.000732764646103397
2806,0.0007190917806066936
2807,0.0004371937458618399
2808,0.0005429994994582438
2809,0.0008695015706894144
2810,0.00084675251237464
2811,0.0006452895066840599
2812,0.0011682392884097559
2813,0.0010952072373849586
2814,0.0008003659941587314
2815,0.0005985873908005699
2816,0.0009241884671628014
2817,0.0005280413324168673
2818,0.0010947323629547604
2819,0.0007260585384366705
2820,0.001763117980836464
2821,0.0010672121760467398
2822,0.0014380015723359499
2823,0.0004292855377162958
2824,0.0008350558623743723
2825,0.0009796806654361783
2826,0.0006331811029656896
2827,0.000650321549586686
2828,0.0005157524724314251
2829,0.0004342092269489237
2830,0.00037554309715247735
2831,0.0008281086055968045
2832,0.01955992894665356
2833,0.0006380484510881548
2834,0.0006252051573414081
2835,0.0006058627948423722
2836,0.0005948696751821152
2837,0.0004581044039513455
2838,0.0007051976414380488
2839,0.0007566136899812378
2840,0.001203773946697143
2841,0.0008820259716281009
2842,0.0004958862166168042
2843,0.0008992560729078114
2844,0.0009225132288494208
2845,0.0005558638901288845
2846,0.0016258445071679162
2847,0.0006833803317282781
2848,0.0008324893253806273
2849,0.0013651071000797092
2850,0.0007188282476707508
2851,0.00042083881844319184
2852,0.0005937780317147683
2853,0.0006664166962927503
2854,0.0005005428729770798
2855,0.008435434754776755
2856,0.0006934482237575967
2857,0.0005190524841635716
2858,0.0009483259782054815
2859,0.0006746194096286237
2860,0.0008693745886662476
2861,0.0005718996865547326
2862,0.0012812278026835824
2863,0.0006790396199651938
2864,0.0006658953268486546
2865,0.0009401936864005967
2866,0.001177257269856777
2867,0.000586805241534437
2868,0.0006480923708883002
2869,0.0004719840285696393
2870,0.0007943470684842097
2871,0.0021328337117214814
2872,0.0005957533552276344
2873,0.0007345720693803028
2874,0.0005791784212558438
2875,0.0005809466231813148
2876,0.00083936822408536
2877,0.0005315867976029547
2878,0.0006281404400357001
2879,0.0008712118688804773
2880,0.0009380548664122179
2881,0.000834982844193224
2882,0.0010485278081766043
2883,0.0005835379110853136
2884,0.0004707676601873574
2885,0.0004462706244216752
2886,0.00040385030663519454
2887,0.0005341061420709929
2888,0.0006891559806501658
2889,0.001004297500082224
2890,0.0005543885479195031
2891,0.0006536747959694403
2892,0.0005778019832591814
2893,0.0006990743105339574
2894,0.0007450676283174226
2895,0.0007808274023462817
2896,0.00041704378004821127
2897,0.0005137877057565718
2898,0.00043790071888151635
2899,0.001154137024722006
2900,0.0004324461674808539
2901,0.0008393506737574942
2902,0.0007304772902558489
2903,0.0006481098580674562
2904,0.00043072053422508013
2905,0.0010363771409195722
2906,0.0008632366543664518
2907,0.0007348160858153611
2908,0.0007277288521417505
2909,0.0007777571748499946
2910,0.00042877026930701205
2911,0.0013704166368640283
2912,0.0008859383402564155
2913,0.000595025945732737
2914,0.0013681807267290531
2915,0.0006123671969114957
2916,0.00043382725565647566
2917,0.0011309181744082425
2918,0.0010322061751744502
2919,0.0004920128559329516
2920,0.0006621223697850754
2921,0.0007108568676984365
2922,0.0004887738787555453
2923,0.0006930665006469059
2924,0.0009706264295755622
2925,0.0007788296672165553
2926,0.00038591650094181557
2927,0.0005695819848815963
2928,0.0007605948888938382
2929,0.0005490234760214455
2930,0.0005320009858106989
2931,0.0004498311638654959
2932,0.0004934031870210386
2933,0.0006537952263563268
2934,0.0008326470990332472
2935,0.0005530062051051005
2936,0.0008363043708300084
2937,0.0005605822652520642
2938,0.0009967556645873595
2939,0.0005772748719798844
2940,0.0004594083273266838
2941,0.0008940615630815748
2942,0.0007999452908987142
2943,0.0011016775646694396
2944,0.0006229615644510273
2945,0.0007166571162857279
2946,0.0008005781671305903
2947,0.00040603918833270503
2948,0.0007644084719612295
2949,0.0006110124075186657
2950,0.0006643305353796919
2951,0.0005831016975064004
2952,0.0005616318944252326
2953,0.0006809403041687288
2954,0.0009960098273733757
2955,0.0006279314148102285
2956,0.0006924318622634114
2957,0.0004899040173510677
2958,0.0006778622098441487
2959,0.0006890548684088001
2960,0.0007213284742799101
2961,0.0007808235281600696
2962,0.0013607677721185017
2963,0.0008061083539554002
2964,0.0005492336675740389
2965,0.0010378859120682073
2966,0.0004267877434591128
2967,0.000640840062330728
2968,0.001392598307803432
2969,0.0004984435757541797
2970,0.000561689062613759
2971,0.0007141627275742418
2972,0.0007656229362174015
2973,0.0003895129490391453
2974,0.0007245602163676563
2975,0.000394830004138754
2976,0.0005046755832242889
2977,0.0009507892500615321
2978,0.0006372568206879219
2979,0.0005728998442658458
2980,0.0006323846001713844
2981,0.000603121420084328
2982,0.000592814331731998
2983,0.0004962441778055038
2984,0.0003791085313970718
2985,0.0008903405147430325
2986,0.0004931768065100651
2987,0.0007303090388803248
2988,0.00043159335242557876
2989,0.0008522632190355676
2990,0.001307349642887763
2991,0.0007974564418269956
2992,0.0008637641021707717
2993,0.0011158487021891933
2994,0.0005028682548939202
2995,0.0006782206738533271
2996,0.0006450582277196169
2997,0.0009443324439657885
2998,0.0008095951136241883
2999,0.0007238430067534385
3000,0.0005892706514560249
3001,0.00048523212912961525
3002,0.0011189803463809965
3003,0.0009130586950881702
3004,0.0005953549801432879
3005,0.0005791395680181815
3006,0.0005123254350847784
3007,0.0006526175698302033
3008,0.00045765342062973436
3009,0.0010536432861499264
3010,0.000801709904814641
3011,0.001328974584018236
3012,0.000943067396922587
3013,0.0006135130310351023
3014,0.0009152851861469177
3015,0.0005304827109956186
3016,0.0010874916414972374
3017,0.0007652822040587828
3018,0.0010454536409697152
3019,0.0011964712765867777
3020,0.0008803118858861647
3021,0.001254690189860318
3022,0.0009854786978478463
3023,0.0009319771101091187
3024,0.0006484659480637706
3025,0.0007593016443095896
3026,0.0004937407386106435
3027,0.0007327199483728067
3028,0.0007731840609201147
3029,0.00043664263240017563
3030,0.0007188057291197129
3031,0.0005081907367537238
3032,0.000605782677132972
3033,0.00046812506195886063
3034,0.000532817379976641
3035,0.0010495106316495285
3036,0.0010527334453110148
3037,0.0007037902189923509
3038,0.001165154527519401
3039,0.0007022454994738728
3040,0.0007429117708997162
3041,0.0007705596288143933
3042,0.0012916230839666435
3043,0.000916029549540416
3044,0.0009744844674877531
3045,0.0007730490661429998
3046,0.0011903286376357986
3047,0.0006363987177934974
3048,0.0006445279571071858
3049,0.03927290287013576
3050,0.0005810842493501837
3051,0.0009235553785443245
3052,0.0008133663541558854
3053,0.0005556740506637463
3054,0.0006993898451083756
3055,0.0005320751116828446
3056,0.0010497082911099188
3057,0.0006074104304665745
3058,0.0012656220891961
3059,0.0009940057129379344
3060,0.0006201820797629169
3061,0.0007006469634861081
3062,0.0007572613579045247
3063,0.0007348010010322
3064,0.000571809215468886
3065,0.0003495129533650122
3066,0.0008467554398986749
3067,0.0009542846057020654
3068,0.0006210579332604471
3069,0.00039216720280874274
3070,0.0005035494411435307
3071,0.0035241063659260945
3072,0.0010251181041190756
3073,0.0006801168622021603
3074,0.001292218565479123
3075,0.0008045302954584288
3076,0.0007895842058533017
3077,0.00123204180471632
3078,0.0006363951968659775
3079,0.0009618737721625554
3080,0.001261198278679133
3081,0.0010179780732011057
3082,0.0003627568306941049
3083,0.0007490294022714067
3084,0.0007133732166352415
3085,0.0005197977222447243
3086,0.0005039102533251188
3087,0.0005769185049370252
3088,0.0005461640070561122
3089,0.0007419849234489162
3090,0.000866072631059921
3091,0.0007990866344349781
3092,0.0007633996524406018
3093,0.0007432402935426417
3094,0.0019467656201636394
3095,0.0008682803364721363
3096,0.0006312609220689657
3097,0.0009137894883479923
3098,0.0008290653822169095
3099,0.0005438067405772559
3100,0.00044770323242475265
3101,0.0007497937830565602
3102,0.0010805887462516618
3103,0.0007870869312463818
3104,0.0007376921997407981
3105,0.0007730102630816908
3106,0.0005719720003163496
3107,0.0007537552944412657
3108,0.001182190724600073
3109,0.0006243774493857933
3110,0.0015764679578123178
3111,0.0012277576393547377
3112,0.0009152494616983088
3113,0.0006086729727749825
3114,0.0006748944508107612
3115,0.0011946584135942217
3116,0.0010201463121820404
3117,0.0011106382617354477
3118,0.0005244034774073729
3119,0.0006294024834531659
3120,0.0005983488975355988
3121,0.0007951833424058622
3122,0.0006269789043225886
3123,0.0004948519371740135
3124,0.0006896291422139503
3125,0.000681321892153943
3126,0.0008953895908525902
3127,0.0011272094010017525
3128,0.000534574058740326
3129,0.000564035610509799
3130,0.0006870547705547222
3131,0.0008036878547433829
3132,0.0005874430464068393
3133,0.0008565840417353255
3134,0.0005100791206362499
3135,0.0009144548955180844
3136,0.00043560875389475834
3137,0.0013456774397509195
3138,0.0008216236634764833
3139,0.00048189575271129274
3140,0.0006742187873227713
3141,0.0009845423137209174
3142,0.000511180471252534
3143,0.0005322970310960011
3144,0.0005140258719646262
3145,0.0006679005935723985
3146,0.0006404882842174031
3147,0.0007602261319014322
3148,0.000618953109650331
3149,0.0009080636668921101
3150,0.0006155812767307914
3151,0.0008963643948902272
3152,0.0007076925413947744
3153,0.001090484853968079
3154,0.0006946510888712632
3155,0.0010513124327457607
3156,0.0008001468867457147
3157,0.000599897152854105
3158,0.0007453705836906144
3159,0.0005096340191285225
3160,0.0006754308809528731
3161,0.0006130774034676722
3162,0.0007072801479916189
3163,0.0010587942175659113
3164,0.0009721677210857918
3165,0.0011130933030757625
3166,0.0005715377916688933
3167,0.0005407192825083445
3168,0.0006233333740127211
3169,0.0008150759375265686
3170,0.0007144510123702658
3171,0.001052948115438779
3172,0.0004913508300697863
3173,0.0004473261396981774
3174,0.0005423633934537083
3175,0.0014520832374721796
3176,0.0008799822752169836
3177,0.0007389193875506448
3178,0.0008223293078423106
3179,0.0005713658242505762
3180,0.0005230822427965434
3181,0.0003499682067155238
3182,0.0009861570983004922
3183,0.0007191859126204613
3184,0.0007165393241869414
3185,0.0005418524910256848
3186,0.0008794299579932646
3187,0.00046878342093964156
3188,0.0005258427750658291
3189,0.0007066177326048608
3190,0.0009885107083339932
3191,0.0007351888017046505
3192,0.0007924199837725002
3193,0.0007545638767568624
3194,0.0008412146911012422
3195,0.0009855921044216957
3196,0.0009860408466568688
3197,0.000826819957176071
3198,0.0020807028309688803
3199,0.0009886109587752088
3200,0.0005151802779337602
3201,0.0005767401416009126
3202,0.0007303649333739641
3203,0.0009076483053020142
3204,0.0005637043887145642
3205,0.0011085906631033567
3206,0.0009057795225184891
3207,0.0012181926222903123
3208,0.0003706913309412636
3209,0.0008019504461637225
3210,0.0012046678482120728
3211,0.0007036324845793949
3212,0.0008428302754199282
3213,0.0009627457338793531
3214,0.0006272736049745176
3215,0.000679999843617844
3216,0.0007157839565291402
3217,0.0004667800768561476
3218,0.0009906643146785244
3219,0.0012352976323379795
3220,0.0006852618467034617
3221,0.0007654960877604422
3222,0.0007875698239621514
3223,0.00041922626710719506
3224,0.0010885969280935263
3225,0.00047733436175510666
3226,0.0008269830071417706
3227,0.0009181839992420588
3228,0.000786402369390488
3229,0.001345461906970453
3230,0.0007712219199295528
3231,0.00045650245685445836
3232,0.000472655020488261
3233,0.00043173538985289545
3234,0.0005938152576320425
3235,0.0008135477835180866
3236,0.0009556480448035691
3237,0.0006257287340176227
3238,0.00103125199678673
3239,0.0005425000921004897
3240,0.0005279779591524021
3241,0.0007675016773155308
3242,0.0008471256500523659
3243,0.0011264407725326514
3244,0.0009141113879345212
3245,0.0006327424602589028
3246,0.0008049878321164018
3247,0.0009910911245215193
3248,0.0008982103753061679
3249,0.0006830255083212698
3250,0.0005964291633669065
3251,0.0005713650652677184
3252,0.0007939502687731858
3253,0.0008225636349264486
3254,0.0008095374760019422
3255,0.0008274959053483537
3256,0.000392302008206403
3257,0.0009475795726979652
3258,0.0008245091537998488
3259,0.0006645480124853293
3260,0.0005394296942049137
3261,0.0003664628312720105
3262,0.0006883322286204542
3263,0.0009267275131612944
3264,0.0005443561751429911
3265,0.00042610605976522845
3266,0.0005881265631028803
3267,0.0005316451545017596
3268,0.0003662082134678579
3269,0.0008705207372375684
3270,0.00043504961176543477
3271,0.0004887470512014218
3272,0.0009633315386070225
3273,0.001308880202886665
3274,0.001405355762193988
3275,0.000701112315203047
3276,0.0006097180935897369
3277,0.000401990693556137
3278,0.0008625697959115967
3279,0.0007530166248636968
3280,0.0010009061959098463
3281,0.0009668163755929016
3282,0.001519896979240576
3283,0.0007137185029127414
3284,0.0010093869103273887
3285,0.000736072576908393
3286,0.0008951469291443076
3287,0.0009303110164277123
3288,0.00035755044359202
3289,0.0005985338832255891
3290,0.0006122792216130634
3291,0.0007547735332201736
3292,0.0006288305200416199
3293,0.0009440094388921742
3294,0.0010514451346860913
3295,0.0005304092937930038
3296,0.000753660214508367
3297,0.000590639899248757
3298,0.0008634589979906699
3299,0.0004886311262743122
3300,0.0008002849544181649
3301,0.0005487708160848201
3302,0.001065195026169509
3303,0.0011356260275845996
3304,0.0005093399737701653
3305,0.0005973071963989879
3306,0.0005521605322858121
3307,0.0011986352490578477
3308,0.0006043319585562589
3309,0.000733048069755395
3310,0.0005326652561733219
3311,0.0006859970474716911
3312,0.0007137137131753955
3313,0.00035734195346344877
3314,0.0005589360702795913
3315,0.0007785861201199527
3316,0.0009174054769794371
3317,0.0017906309483784737
3318,0.0007530455031971483
3319,0.0005108194379185107
3320,0.0004955374467603582
3321,0.0008691719965800235
3322,0.0007958578620898799
3323,0.000783359841327725
3324,0.0009121651628129024
3325,0.0005581578607784365
3326,0.0004873693743133693
3327,0.0008049652860645435
3328,0.0005824103053089443
3329,0.0006676320667620227
3330,0.0010087476469839648
3331,0.000640107132328666
3332,0.0004484294179620595
3333,0.0007369684988904571
3334,0.0006325838294524591
3335,0.0007467297773354431
3336,0.000858022854941259
3337,0.0007008637997839768
3338,0.000728195723280674
3339,0.0016052196013264222
3340,0.0007644653614896839
3341,0.0005936512462921666
3342,0.00043675338169288776
3343,0.0006749743451696643
3344,0.000716191224884865
3345,0.0006797029642613768
3346,0.0006660970907090066
3347,0.0006472469317977924
3348,0.0008708345342628366
3349,0.0005500818488598819
3350,0.0007910601014336674
3351,0.0009081747010510617
3352,0.0008184814632062679
3353,0.0004069524533605692
3354,0.0009333011209341164
3355,0.0009082353002781763
3356,0.0006974502793635484
3357,0.0014993620184940494
3358,0.000746620103716731
3359,0.0006167497962892501
3360,0.0006089582884236265
3361,0.0009968860819874216
3362,0.001543389052687597
3363,0.0011702919361596916
3364,0.0005339057256299887
3365,0.0005091786869964488
3366,0.0009147272718866179
3367,0.0006952687031941894
3368,0.0006424098808913626
3369,0.0004903144068214442
3370,0.000928386176385576
3371,0.0006512425366898401
3372,0.0005112547408227232
3373,0.0009740971557780589
3374,0.0008460200049130845
3375,0.0004992934192450805
3376,0.0012383922054754614
3377,0.0008654046841130222
3378,0.0006791841751727666
3379,0.0008115366263320906
3380,0.0015883980918227104
3381,0.0011244378170287151
3382,0.0005758196140837571
3383,0.0009604307442163551
3384,0.0008718511964611973
3385,0.0009412843461376106
3386,0.0004620116170623146
3387,0.0004861297255704422
3388,0.0007435634812537133
3389,0.0005202240014276515
3390,0.0007924446052695282
3391,0.0017420698720030034
3392,0.000485885877070128
3393,0.0006146099620841764
3394,0.001034311065939448
3395,0.001734948563584837
3396,0.0007543589416546158
3397,0.0007732056950446921
3398,0.0008305991611882421
3399,0.0005160019714638338
3400,0.0007316090584787606
3401,0.0006606720889119436
3402,0.0011144332822066384
3403,0.0006632297830021674
3404,0.0006653464210923677
3405,0.000593738321717023
3406,0.0006917617520183956
3407,0.0014983157532940663
3408,0.00047237836694791945
3409,0.0005177548327266599
3410,0.00042649336653320755
3411,0.0014999638740019938
3412,0.0008372944023644386
3413,0.00037759413617862006
3414,0.000979277996954491
3415,0.0006247446618840986
3416,0.0009440237253676364
3417,0.0005393951386643437
3418,0.0006940025401226724
3419,0.000641264144987576
3420,0.0007280205935225289
3421,0.0009075881138435912
3422,0.00047355754326710225
3423,0.0004838959719005411
3424,0.0005703366917665143
3425,0.0007973006890270515
3426,0.000745313770463711
3427,0.0009151346587297529
3428,0.0007571256608692715
3429,0.0010226333663932686
3430,0.0008264640163423779
3431,0.0005769638759898664
3432,0.0008047759637893928
3433,0.0005569170187520878
3434,0.0008400917023495572
3435,0.0007355361184094627
3436,0.0004874484873621029
3437,0.0015894438795846636
3438,0.0005102764775095259
3439,0.0006215644724023132
3440,0.0006636019377301371
3441,0.0013084440847239101
3442,0.0019396077434330747
3443,0.0009907616320731425
3444,0.0009229818245252652
3445,0.0008169111985299922
3446,0.00085330165748058
3447,0.0007001554365218892
3448,0.0006631113279889265
3449,0.0005894960214742573
3450,0.0007316007969789655
3451,0.000818608926108213
3452,0.0008257213189822297
3453,0.001018460719778674
3454,0.0009012449998481902
3455,0.0009014010806566915
3456,0.0006008361584793336
3457,0.0008013352193299957
3458,0.0006811132772235958
3459,0.0015594672400300537
3460,0.00044109720326735384
3461,0.000467679421344965
3462,0.0006727606614160495
3463,0.0006728044531351681
3464,0.0005300404759951383
3465,0.0012418426810353977
3466,0.00043299440268541455
3467,0.00132228377798562
3468,0.0005995289464397661
3469,0.0007951863325675798
3470,0.000851451292846687
3471,0.0007641934880868916
3472,0.0005653490441022047
3473,0.00043810770248763216
3474,0.0007301839126024042
3475,0.0006920274546425162
3476,0.00045100202867885453
3477,0.0004710786697392337
3478,0.0010527484627903554
3479,0.0008143402427289019
3480,0.00039415376017107074
3481,0.0006561779697334507
3482,0.0007568111716981642
3483,0.0004965763929300885
3484,0.0006706993910352178
3485,0.0003142372670296692
3486,0.0005846762496796999
3487,0.0010167063463546577
3488,0.001519963447672527
3489,0.0008115071488526253
3490,0.0008369719457231669
3491,0.0006951039706584112
3492,0.0010307898752677407
3493,0.0006241611925363971
3494,0.0005218905226673863
3495,0.0007953429546994587
3496,0.000820221788440903
3497,0.0009504009319799571
3498,0.00045173300602139774
3499,0.00045866476284887756
3500,0.001016233182248704
3501,0.0011826602700242654
3502,0.0005003394235645466
3503,0.00042616488395736925
3504,0.0005554445278927972
3505,0.0006160478464758098
3506,0.0006253133736430079
3507,0.0009094302752965315
3508,0.0012154496518057634
3509,0.0009124605441513332
3510,0.000841674851068762
3511,0.0007185172937821905
3512,0.0006985734047663385
3513,0.000710847757327776
3514,0.0006779246843133185
3515,0.000574391101456849
3516,0.0007101603420585835
3517,0.001049544262413894
3518,0.0005871164823357607
3519,0.0006987327335648262
3520,0.0003523734413556461
3521,0.0006902803533820482
3522,0.000634211104674982
3523,0.0006020546791793443
3524,0.0010102121320006816
3525,0.000804702459044832
3526,0.0004559578069668042
3527,0.0005306393708952292
3528,0.0005987711104588401
3529,0.0006023104796233341
3530,0.0008782335484240468
3531,0.0006184648860842644
3532,0.0005583515994043148
3533,0.0007469206839848517
3534,0.0008778113940440132
3535,0.0007302643069741713
3536,0.0008022350163670751
3537,0.0004057902268493062
3538,0.0013761764294788015
3539,0.0005373227229466741
3540,0.0008490729652744413
3541,0.0007979556455454645
3542,0.001103968955091235
3543,0.0011300209100681808
3544,0.0008978922316056733
3545,0.00039664292178661427
3546,0.00046475235490202414
3547,0.0007795852283050627
3548,0.0003706332382092252
3549,0.0008736291301608726
3550,0.0006606796287768772
3551,0.0009951981025599626
3552,0.0008896196510814338
3553,0.0009337786034452835
3554,0.0004779476514005252
3555,0.0004209690528834123
3556,0.0007551883362693939
3557,0.0005261466177597962
3558,0.0004905777260504295
3559,0.0011476580389850701
3560,0.0005945868505925352
3561,0.000891165047341684
3562,0.0009065566246638092
3563,0.0015619613448796326
3564,0.000875235881994389
3565,0.001546274059679963
3566,0.0008283217844385986
3567,0.0009331847066291282
3568,0.0005613368375211296
3569,0.0010162002506919987
3570,0.0005939663833708106
3571,0.0011970886169327048
3572,0.0003702875805771587
3573,0.0004684606880945939
3574,0.0006367978861887067
3575,0.0008119383025138722
3576,0.0007522588394977412
3577,0.0008534375470124204
3578,0.0006548843749480239
3579,0.0014856460187004502
3580,0.0006068226952229411
3581,0.0006907873501291085
3582,0.0011696417232926629
3583,0.00048079672964399634
3584,0.0006658262894418508
3585,0.0006670004495902791
3586,0.0007493503384635851
3587,0.001065611633254773
3588,0.0009411030365257132
3589,0.0013457034095531752
3590,0.001094084923313062
3591,0.0010361452788288776
3592,0.0005488752427622969
3593,0.0005836907288155731
3594,0.0006649521894901606
3595,0.001165602689263878
3596,0.0005214575052883126
3597,0.0008170670371241502
3598,0.0008063790090886107
3599,0.0004616981229675848
3600,0.00045483444500737913
3601,0.0003927894384749499
3602,0.0004364484632329664
3603,0.0009814411280288096
3604,0.0005358002146932605
3605,0.0012694064563147165
3606,0.0009718098035532168
3607,0.000617367673676353
3608,0.001618804375440736
3609,0.0006091060332109363
3610,0.0004197794690900942
3611,0.0012461529833663546
3612,0.0009736786650023516
3613,0.0025035450223680976
3614,0.0010968675556183244
3615,0.0008406863375489175
3616,0.0006818230916152791
3617,0.0005032160692573785
3618,0.00046286672979307605
3619,0.0006185360381505589
3620,0.0004787221082439213
3621,0.0005602879499077162
3622,0.0006933786329912444
3623,0.0008478808536472299
3624,0.0008985868639763025
3625,0.0007052217515753188
3626,0.0006850506346860097
3627,0.0006181239803157561
3628,0.0006035859321891709
3629,0.00039213922816165836
3630,0.0008348945619320471
3631,0.0006640015338224097
3632,0.0005364571956206512
3633,0.0010906240052439582
3634,0.0006266598140528215
3635,0.0005557243140461748
3636,0.0007733243107955612
3637,0.0008157157999814993
3638,0.0003618441823945889
3639,0.0006829058807185413
3640,0.0006590485981465331
3641,0.0006901389632408696
3642,0.0006211894824964399
3643,0.0009472643202986966
3644,0.0010554656322085576
3645,0.0007791028155354754
3646,0.00047804455807461566
3647,0.0006463729276768575
3648,0.0007099240806284438
3649,0.0007301301473305587
3650,0.0005856013097770918
3651,0.00044666212388380655
3652,0.0003993398128999449
3653,0.0008249580350588999
3654,0.0010943887240615145
3655,0.0007906809396846943
3656,0.0008651917583491996
3657,0.0005763198961882491
3658,0.00047545338592025634
3659,0.0008982240840802793
3660,0.0004594218560011132
3661,0.000913389184041342
3662,0.0007283613708354594
3663,0.0013821461915171681
3664,0.0004751192391063882
3665,0.00043038424538825926
3666,0.00041990572923916595
3667,0.0008675497364132433
3668,0.0007237406596987384
3669,0.0006359295178012069
3670,0.001195693285711077
3671,0.0004900830143321148
3672,0.001220533478601299
3673,0.0006399727905535361
3674,0.0005683796344145059
3675,0.0011897420420161615
3676,0.0007208835149680658
3677,0.0004958282178531377
3678,0.0006294873602487026
3679,0.0005469933682870413
3680,0.00038737144954783154
3681,0.0010739994723155224
3682,0.0005505516948437838
3683,0.0006370797562332051
3684,0.0007876402115797981
3685,0.0007088034397686553
3686,0.0007481384428004106
3687,0.0007484259628110742
3688,0.0009389749388941168
3689,0.0007696054834174997
3690,0.0009729672308245756
3691,0.00039537201553473806
3692,0.0011706706057483486
3693,0.00046023387761926583
3694,0.0008637054597235958
3695,0.0004839714478963124
3696,0.0005230675913708133
3697,0.000797656377902845
3698,0.0008211493097895204
3699,0.0006477775069139565
3700,0.0003766040738905368
3701,0.0004435517617895886
3702,0.0011276971324800213
3703,0.0007102761208009025
3704,0.0005490185711627984
3705,0.0006082264668503675
3706,0.0008532187259793603
3707,0.0003824574981728854
3708,0.0007428038576139151
3709,0.0007610723214528909
3710,0.0005425459245435685
3711,0.0005029649753676851
3712,0.001029177078777226
3713,0.0005335547924925912
3714,0.0006969047863552109
3715,0.0004889922597617682
3716,0.0006958522837542614
3717,0.00060219157164713
3718,0.0007069705078959429
3719,0.0005122885120900683
3720,0.0010539037023558626
3721,0.0005468356983540128
3722,0.0005018800740874599
3723,0.0007306252375273652
3724,0.0010214756954433984
3725,0.000667833095133396
3726,0.0006900999051590317
3727,0.0012254064400245596
3728,0.0007637991942782155
3729,0.0005304673997964257
3730,0.0008568949102890057
3731,0.0007993388676819602
3732,0.0008956192976748068
3733,0.0011221533845521031
3734,0.0005870736175086248
3735,0.0006782380316851462
3736,0.0004735073335643469
3737,0.001198504658385952
3738,0.0008234571328289186
3739,0.0006247145451291003
3740,0.0004209957887344175
3741,0.000392451121983481
3742,0.0008523843786144356
3743,0.0007424115020914515
3744,0.0016776380714248703
3745,0.0008571606807084609
3746,0.0006608568204223016
3747,0.0006784523229656344
3748,0.0006852653012170655
3749,0.0006262734985153449
3750,0.000713960257065401
3751,0.0006545954145338549
3752,0.001283780041261386
3753,0.00131487589603455
3754,0.0007426618154068741
3755,0.0008277315522377362
3756,0.0006556894985811316
3757,0.0006027153193067513
3758,0.0004001411994057476
3759,0.0006438981758813693
3760,0.0009035641391973953
3761,0.00080948847479942
3762,0.00037953862352586447
3763,0.0007404181583077449
3764,0.0011061320922689855
3765,0.0013331395616532537
3766,0.0006969652218752428
3767,0.0010015239119094015
3768,0.000933572555677962
3769,0.0016978478625487364
3770,0.0008128757204860904
3771,0.0007634308391862387
3772,0.0007001135541922362
3773,0.0004691626769633309
3774,0.0005086053601181968
3775,0.0008051838055225838
3776,0.000680774448699519
3777,0.00036204008097135576
3778,0.000594167855332689
3779,0.001594313457687521
3780,0.0005646566779183697
3781,0.00032125106488278354
3782,0.0014355173171859712
3783,0.0009903978849287176
3784,0.0006994699693308417
3785,0.0008865614179631909
3786,0.0007414982732293279
3787,0.0006484415512445442
3788,0.00031414576572139135
3789,0.0007684988588890331
3790,0.0006382187173808724
3791,0.0004761765524423535
3792,0.00045090081983235604
3793,0.00036464763213681886
3794,0.0007506281046932158
3795,0.0007536664598733719
3796,0.0006383022662375226
3797,0.0015130130996874969
3798,0.0005610823291552194
3799,0.0005914144757331982
3800,0.0006180452444457533
3801,0.0005388443388416981
3802,0.0007165291546653888
3803,0.0008783702504042623
3804,0.0009717967595679525
3805,0.0007942131328143732
3806,0.0007274657427821387
3807,0.0003945214581654993
3808,0.0007041085726529396
3809,0.0009015487728153404
3810,0.0010326799537135245
3811,0.001364659314228763
3812,0.001397919469845457
3813,0.0007875017384043482
3814,0.00038399959035457636
3815,0.0007543445521687427
3816,0.0007431059362064644
3817,0.001022635427573612
3818,0.000510049509974495
3819,0.0006725760269647089
3820,0.00046543273829279756
3821,0.0007531636327718937
3822,0.0004956800907857242
3823,0.0006473757783037964
3824,0.0007045047967974677
3825,0.0005618635228529003
3826,0.00092430576060615
3827,0.0006166767625988631
3828,0.0012587821165185
3829,0.000815601749149067
3830,0.0006473270031546537
3831,0.0004335263587239897
3832,0.0005890692601644236
3833,0.0010995400689156364
3834,0.0006468936509013879
3835,0.000609750375370347
3836,0.0007873073845430846
3837,0.000368173179378209
3838,0.0008649950500220908
3839,0.0005561144857521342
3840,0.0006984429559211133
3841,0.0005746408109785991
3842,0.0004823892020258038
3843,0.0007065822458432673
3844,0.0008114676300944141
3845,0.0008775833786123823
3846,0.0004965754020357202
3847,0.0003767920751539684
3848,0.0006314143659043998
3849,0.0006309972637213078
3850,0.0004227794068280168
3851,0.001087895155516989
3852,0.0006568498731542476
3853,0.0005466539545019764
3854,0.00045935308765661284
3855,0.0005219127089097615
3856,0.0004669035926460151
3857,0.0006844310361652263
3858,0.0005417600925237302
3859,0.0005985964598020066
3860,0.00043719747408832953
3861,0.0007527683585348651
3862,0.0010859295070354783
3863,0.0007216357760942798
3864,0.0006385805126398608
3865,0.0005302183747863216
3866,0.0007228513705717896
3867,0.0017656970389700597
3868,0.0006956030464998685
3869,0.0013924926997007832
3870,0.0012749502854218708
3871,0.0005089226600322564
3872,0.0004246205130646295
3873,0.0007743039600903743
3874,0.000617857321069965
3875,0.0006589457024692147
3876,0.0006512699378422403
3877,0.00047319673855757453
3878,0.00088594426674396
3879,0.0005850585587955438
3880,0.0006529312662237772
3881,0.0011138774374050769
3882,0.0005274620481868516
3883,0.0008408357269329048
3884,0.0006262869694138411
3885,0.0008829165322715197
3886,0.0006407433534658752
3887,0.0009209831238579838
3888,0.0006886802110099816
3889,0.0006966674340069682
3890,0.00040884104333387854
3891,0.0007473025892386308
3892,0.0007635761887249762
3893,0.0010018790324105734
3894,0.0004939526810198041
3895,0.0007294046631500956
3896,0.0004916299352760035
3897,0.0007063757421262361
3898,0.0004351649611728708
3899,0.0005238240617542226
3900,0.0008117932983769529
3901,0.0007688398305837423
3902,0.0008338904785567173
3903,0.0013435858895134148
3904,0.0010056892420413045
3905,0.0008381695510904452
3906,0.0007813583577679171
3907,0.0011833224399992637
3908,0.0009880865449442301
3909,0.0008964318006436152
3910,0.0013777644972958903
3911,0.0003872417986761625
3912,0.0004188147221826419
3913,0.0006279465316956345
3914,0.0008222046159015334
3915,0.0004033563384173836
3916,0.0005508736401097513
3917,0.0008919215269272443
3918,0.00090465180678375
3919,0.0011711998214785342
3920,0.0010691303435146115
3921,0.000916718682175601
3922,0.0006667768142058313
3923,0.00041348476351547495
3924,0.000786621661874782
3925,0.0004192884380788842
3926,0.0005712476962017895
3927,0.0007222953895359673
3928,0.0010132686981961837
3929,0.0006344478034801354
3930,0.0005116173047855759
3931,0.0005242115746546753
3932,0.001035410798160755
3933,0.0017122513450667173
3934,0.0006781943079462791
3935,0.0007603586107224275
3936,0.0005847135205851115
3937,0.0007275610025370303
3938,0.0007697499255349715
3939,0.0006698796601501477
3940,0.0007413150219783247
3941,0.000673066618238962
3942,0.0006608730885097201
3943,0.0008276179018830684
3944,0.000971253586176663
3945,0.0009021980759606044
3946,0.0014740578568029153
3947,0.0008561628645998336
3948,0.0008025123591176289
3949,0.0005219301385993545
3950,0.0007141830943336705
3951,0.0004408115741246135
3952,0.000800529473923872
3953,0.001085941615806467
3954,0.0005293641133899369
3955,0.0007153176009628992
3956,0.000937292350535377
3957,0.0005119144311691034
3958,0.00046636016116442705
3959,0.0008195982421279005
3960,0.0007340813288367002
3961,0.0005223800508030943
3962,0.0011510305684122996
3963,0.0005359706026790375
3964,0.0011184593112418897
3965,0.0007317562147178841
3966,0.0007341679731918935
3967,0.0006717764515021794
3968,0.0009036687822681279
3969,0.0004358109374310074
3970,0.0008234060349884885
3971,0.0007260297556797395
3972,0.0010110142589366466
3973,0.0010248365951206241
3974,0.0005841482623297786
3975,0.0007719446555501957
3976,0.00034267227838831005
3977,0.0009065874102125193
3978,0.0006918918932080131
3979,0.0013509826641554042
3980,0.0005542299600868606
3981,0.0005609918953554058
3982,0.0010121663818165674
3983,0.0013662251704596965
3984,0.0006857552892805116
3985,0.001652139510094921
3986,0.0004697672204781236
3987,0.0009590545227946737
3988,0.0008046885138980095
3989,0.0008730374447143876
3990,0.0005724511053232851
3991,0.0007106780346145037
3992,0.0004746831114455963
3993,0.00038174991433196053
3994,0.000648068353840529
3995,0.0006160530667769369
3996,0.000955731710554759
3997,0.0004803281176724065
3998,0.0006490258721008099
3999,0.0009893532278768566
4000,0.0009317392145887355
4001,0.0006673254940997673
4002,0.00044593563619374905
4003,0.0006566905142143865
4004,0.0014174295146240717
4005,0.0007535019782600346
4006,0.0006058607641971994
4007,0.0005879806223488713
4008,0.0004831603598601177
4009,0.0008797270696520353
4010,0.0016317804177512821
4011,0.0009582198971421867
4012,0.0004908142472224446
4013,0.0005440768257934041
4014,0.000636313859793023
4015,0.00045551177064675287
4016,0.0013269927771775096
4017,0.000527706806550641
4018,0.0012239549531137472
4019,0.004050477390202853
4020,0.0007905275038536735
4021,0.00043067974250219677
4022,0.0009155862042945613
4023,0.0004399878957730459
4024,0.00096618579732621
4025,0.0005949254934131666
4026,0.000803206277598861
4027,0.002142168451874489
4028,0.0008919170586540635
4029,0.0013337245254094975
4030,0.0004323354062747258
4031,0.00037312640762111014
4032,0.000994036802389112
4033,0.0005390218911478663
4034,0.0017610846641177306
4035,0.0005850366180160579
4036,0.0013156001271901363
4037,0.0008912053323555022
4038,0.002032011106476982
4039,0.0007686430170211156
4040,0.0008725746528566098
4041,0.0009793122242584586
4042,0.0005355263609974747
4043,0.0010296898591398804
4044,0.0008679583865933474
4045,0.0005339041886338408
4046,0.0005514490849684401
4047,0.00040441977365670347
4048,0.00047062272841169725
4049,0.000688339340085717
4050,0.0009224325754353713
4051,0.000672266020584092
4052,0.0005826510403310278
4053,0.0005674581508102831
4054,0.0008410211779234573
4055,0.0011948544074880645
4056,0.0006660464685378778
4057,0.0003939759117641649
4058,0.0008729344609572833
4059,0.0008230233436158938
4060,0.0006013060598306192
4061,0.000648208606237924
4062,0.0006479240654713081
4063,0.000725814306843321
4064,0.0005866225137709812
4065,0.0006417059690639226
4066,0.0005274256879693759
4067,0.0005139799495852548
4068,0.0005080507441051877
4069,0.0013015882193759538
4070,0.0005464019937641386
4071,0.0004754811248860228
4072,0.0006500929794191253
4073,0.0007931372778325908
4074,0.0007008413994904243
4075,0.0005754362546068109
4076,0.0006025908932185611
4077,0.0007847243816740742
4078,0.0006547153207817207
4079,0.0008046806132341166
4080,0.00055538763772954
4081,0.0005091510822187509
4082,0.0007716851522447914
4083,0.0006456624556207006
4084,0.0005493530852152478
4085,0.0019232654929722875
4086,0.0006239352054826567
4087,0.0005794726878539211
4088,0.0010442851216800589
4089,0.000810401752376091
4090,0.0010921942805608585
4091,0.0006199526053453444
4092,0.0005010226049119654
4093,0.0008040715151349698
4094,0.000569131453324399
4095,0.0004166588014287228
4096,0.0006317398494176814
4097,0.0009215110764081559
4098,0.00084203720065553
4099,0.0006442431468425179
4100,0.0008145207959391783
4101,0.0011421592403923337
4102,0.00043609224509109413
4103,0.0007923832895372068
4104,0.0005877090659655018
4105,0.0007231924950643026
4106,0.0005403834944276601
4107,0.0004834504725089213
4108,0.0007438361395523535
4109,0.0005237360159809905
4110,0.0008385089873776347
4111,0.0006265269190172992
4112,0.0004041558920077075
4113,0.0009266931409433318
4114,0.0004046004974674079
4115,0.0004276759166901925
4116,0.0009255555647062372
4117,0.0009240820538461936
4118,0.000981569955592181
4119,0.0010331631622062527
4120,0.0010019272153346187
4121,0.0005390021067691712
4122,0.0006094262482257698
4123,0.0005079646311409237
4124,0.0009644073671812649
4125,0.0007527945026991608
4126,0.000755369269285803
4127,0.0004419868944042191
4128,0.0006839145911556567
4129,0.00044548395266392994
4130,0.0009115139264463625
4131,0.0005855946999286651
4132,0.004268244525966727
4133,0.0005642509074734022
4134,0.0004897127651791771
4135,0.0014158676385466777
4136,0.009105427600173811
4137,0.0008621353072059694
4138,0.0006055561892501988
4139,0.0005394884726763558
4140,0.0005438413268981714
4141,0.0006284855862378188
4142,0.0008546164944085307
4143,0.00036337893870893803
4144,0.0004947493732691841
4145,0.0004361591936408032
4146,0.0006198278528592273
4147,0.0007219059567066859
4148,0.0011107509517091448
4149,0.0006442132079198687
4150,0.0007062345049301455
4151,0.0006481151283254515
4152,0.0008870802320171535
4153,0.0010353453770776554
4154,0.000508781383554885
4155,0.0005507538905156817
4156,0.0005807877531008084
4157,0.0011218366978412047
4158,0.0004633795725030263
4159,0.0007152391557817516
4160,0.000543697627310572
4161,0.0008429511140408966
4162,0.0008445013403104957
4163,0.0006793610970433357
4164,0.0005124410062690963
4165,0.0007528497068533668
4166,0.0008736690835628005
4167,0.0004979840616671279
4168,0.0005046686403642927
4169,0.005010376388632215
4170,0.0006813933128189658
4171,0.0007531994148446969
4172,0.0004522600004569061
4173,0.0005821648469992714
4174,0.0007262142113619906
4175,0.0010957280715742344
4176,0.0006840141605684877
4177,0.0008035263690762108
4178,0.00047486278624598346
4179,0.0012023695768934358
4180,0.0005541243978916389
4181,0.0005878976420606329
4182,0.0004386405487612012
4183,0.0009621694163676025
4184,0.00042569963260439945
4185,0.0038334795772430137
4186,0.000654400124193333
4187,0.0009376445448697576
4188,0.0004727375320561475
4189,0.0007746538256934494
4190,0.0006386548362490465
4191,0.0007838269901431494
4192,0.0008186951878192258
4193,0.0008575090696336925
4194,0.0008534400181510935
4195,0.0005024072326732246
4196,0.0006749924633913525
4197,0.000602535800349613
4198,0.0005877839395339284
4199,0.000640855308166652
4200,0.0007308715448499805
4201,0.0009311933155124264
4202,0.0008997383802803159
4203,0.0008580237858276051
4204,0.0005681945986095422
4205,0.0012137197226809713
4206,0.0007726383517786457
4207,0.0007779015412897365
4208,0.0016141842991596335
4209,0.0005650925367317216
4210,0.0007857828102457951
4211,0.0003834117971413209
4212,0.0004883409226016411
4213,0.00034137337209115965
4214,0.0009610048307660855
4215,0.0010793875185361398
4216,0.0011014124403484452
4217,0.0011147595993834273
4218,0.0004085765530264458
4219,0.000703655517282952
4220,0.0005885607287379808
4221,0.0015791809030461963
4222,0.0006221035503537253
4223,0.0007601018441390903
4224,0.0006610701394903158
4225,0.0005048416199309769
4226,0.0006082844273282217
4227,0.0010148877090761404
4228,0.0007271524775208604
4229,0.00035680997042051427
4230,0.0005016401381110617
4231,0.0006761485076996233
4232,0.0005894853518669928
4233,0.0006803624501572433
4234,0.0005447746042331061
4235,0.0009042241388744942
4236,0.0003054074846968999
4237,0.0004722188330373358
4238,0.0007200958832154669
4239,0.0014140511297154068
4240,0.0007508737437826301
4241,0.00029643462317873224
4242,0.0005000611273152605
4243,0.0005247352787196152
4244,0.0008305864104599349
4245,0.0009301268416804566
4246,0.000879476094779912
4247,0.0010693059428191463
4248,0.0012572275250540567
4249,0.0004208753927429603
4250,0.014893145044742864
4251,0.0010360907215966706
4252,0.00042295963171544687
4253,0.000363314587311023
4254,0.0008087673216470965
4255,0.0006646200655572983
4256,0.00071732425149384
4257,0.0006136705888709009
4258,0.0006873708981061906
4259,0.00041407140417549306
4260,0.0004019663824526657
4261,0.0006544744399825382
4262,0.0008261724126600649
4263,0.0005068787869713156
4264,0.0006593859344330509
4265,0.0006474102739046907
4266,0.0005782428391157645
4267,0.0010750650452483834
4268,0.0005465199373336508
4269,0.0010949368899395861
4270,0.0008804548982324499
4271,0.0007469504576642578
4272,0.000609135074275597
4273,0.0006168859841837646
4274,0.0004901517077478917
4275,0.00038379593438982596
4276,0.0023829068582546394
4277,0.0009880433089799634
4278,0.0004683384624719023
4279,0.0005551780421249246
4280,0.0011394920912470591
4281,0.0008384760017029753
4282,0.0006284208141444805
4283,0.0007099211961676339
4284,0.001339452350237238
4285,0.000679927425775516
4286,0.0004064041452598434
4287,0.0007740428802462211
4288,0.0005137682232003993
4289,0.0007695545872780025
4290,0.00038847033148940106
4291,0.0004450306263847245
4292,0.0014149729170039455
4293,0.0011867511521081982
4294,0.0010513076058226215
4295,0.0006357978618166145
4296,0.0005902338287977696
4297,0.0007822124748609831
4298,0.0003574650638587588
4299,0.0023569504134926754
4300,0.0005793919598927961
4301,0.0010213954803694881
4302,0.001027515713410445
4303,0.0006342278905417937
4304,0.0006259994813647894
4305,0.0006771723195655243
4306,0.0005258557768317697
4307,0.0009644164672675696
4308,0.0006286888166069255
4309,0.0010204145836103299
4310,0.0009395512154178244
4311,0.0009496828885968566
4312,0.000731230427635376
4313,0.00044149013153892884
4314,0.0014386736337512027
4315,0.0007335232626955902
4316,0.0005981574073259913
4317,0.00043103990108472445
4318,0.0004950670990832222
4319,0.0006685520648879571
4320,0.0008093600867746925
4321,0.0008824836268250816
4322,0.0006094687188978727
4323,0.0009766972834484935
4324,0.0014286328593957408
4325,0.0007311525208533678
4326,0.0013665821888591495
4327,0.0009328818047958088
4328,0.002143596697008519
4329,0.0009753059140278418
4330,0.0005619858974597577
4331,0.00040340620961653716
4332,0.0008196896958386795
4333,0.0005020478113618429
4334,0.0012944573640418435
4335,0.0010102676879048512
4336,0.0005521499863596045
4337,0.0004387623701159124
4338,0.0004598513443915328
4339,0.0009038314580495284
4340,0.0009198056553891119
4341,0.0004912069493291397
4342,0.00038895710926489964
4343,0.0008121445366310604
4344,0.0020641530854513084
4345,0.0006787605754218197
4346,0.0004262128140032595
4347,0.0007710224341168759
4348,0.000832861429655877
4349,0.00044948171033263034
4350,0.0005587968298103049
4351,0.0006368879385501093
4352,0.0009900801877585675
4353,0.0009580889297815869
4354,0.0006512403452156953
4355,0.0011264550121764562
4356,0.0002802300382114959
4357,0.0007078987413388302
4358,0.000742028598771733
4359,0.001071512271928802
4360,0.0005487170807312765
4361,0.0009525357854058626
4362,0.0010075679368561886
4363,0.0005831139775088016
4364,0.0007918199165532389
4365,0.000614823598672768
4366,0.0004175020299824248
4367,0.0006527055328785455
4368,0.0005643593775814792
4369,0.0009893388929723486
4370,0.0006498832141762161
4371,0.0006901025024733218
4372,0.0009606622546815888
4373,0.0009746151192065739
4374,0.0005740205022779506
4375,0.0008170688498611114
4376,0.0005744984303113062
4377,0.0007914821477752295
4378,0.0009718509062927611
4379,0.0007880059320178177
4380,0.0008103047410301424
4381,0.0009665353650389035
4382,0.0009350259745852527
4383,0.0005347716287138959
4384,0.0008984398088970902
4385,0.0008629490590369577
4386,0.0014165479025722968
4387,0.0010698888178188913
4388,0.0008565164172337654
4389,0.0009614227039790579
4390,0.0005865109805355644
4391,0.0010392901350204228
4392,0.0007465033017083643
4393,0.0006657429153086
4394,0.000799345056726149
4395,0.0008529741869475942
4396,0.0006795864248442871
4397,0.0007428578308747096
4398,0.0007036824393727785
4399,0.0006917074188798285
4400,0.0005750129176313151
4401,0.00043164622234259165
4402,0.0010089535379089758
4403,0.0005257870095988166
4404,0.0004373587091813813
4405,0.0007914926592500828
4406,0.0006903826063705854
4407,0.0005716514861219914
4408,0.0007230053197323803
4409,0.0008925862717094107
4410,0.0007474728183554718
4411,0.0008325771976578504
4412,0.0007872979445467849
4413,0.00043797146335806123
4414,0.0009015086755018535
4415,0.00023971434448620446
4416,0.0003039576150774372
4417,0.0005885736921182399
4418,0.0008919902950941147
4419,0.0005790875538659658
4420,0.0011744267024055238
4421,0.00030986227033544787
4422,0.0008791424924191725
4423,0.0009067150069320472
4424,0.0006422430743979215
4425,0.0005690725578162243
4426,0.0006035985370666375
4427,0.0005440803112321583
4428,0.0008427209210529939
4429,0.0006836409360286446
4430,0.00045007824739855994
4431,0.0013542667900053814
4432,0.0004925914068783532
4433,0.0009145369976002065
4434,0.0006144851782724993
4435,0.0005724330842835352
4436,0.0009366578523079485
4437,0.0005306320042482934
4438,0.0006492643161087559
4439,0.0008506189352398964
4440,0.0007610269139516428
4441,0.0007919042258471564
4442,0.000521498414055286
4443,0.000493067417696355
4444,0.0016680943512370424
4445,0.0005344736441249965
4446,0.0006713222470298468
4447,0.000753728136401721
4448,0.0006193609289814402
4449,0.0005510920237663725
4450,0.000946668237098826
4451,0.003004181590731736
4452,0.000698328202806941
4453,0.000494454669066307
4454,0.0005436245076500834
4455,0.00034700694301613276
4456,0.0006369964893893752
4457,0.0007129347931651266
4458,0.0008002886315536541
4459,0.0010897654292006944
4460,0.0008717964195042294
4461,0.0011438946452256064
4462,0.001083024823401026
4463,0.0007474907174974045
4464,0.0005276388776699108
4465,0.0010646376252759313
4466,0.0006770048376354736
4467,0.0005988520564165564
4468,0.0014070627861615804
4469,0.0006320691942863094
4470,0.0007632629521784478
4471,0.0005491690683919652
4472,0.0011084777244649766
4473,0.000761943440981717
4474,0.0005477796672685207
4475,0.0003817553906660351
4476,0.001192563626291937
4477,0.0006799687492459165
4478,0.000695831789755096
4479,0.0008908284825805301
4480,0.0006541611476351317
4481,0.0006479687103484685
4482,0.0003214579584924998
4483,0.0007054561071861509
4484,0.0007408465407642726
4485,0.0005610355575297034
4486,0.0005373505029071455
4487,0.0005882213567023952
4488,0.0006897651584582222
4489,0.0005868827799000073
4490,0.0004088015710605648
4491,0.0007431449547911842
4492,0.0003432056236665516
4493,0.0004105197129626015
4494,0.0009376512511484337
4495,0.0009236228867692136
4496,0.0006262038373005125
4497,0.000816232272612383
4498,0.0008164176258284367
