'Elapsed time','i','ii','iii','avr','avl','avf','v1','v2','v3','v4','v5','v6','vx','vy','vz'
'hh:mm:ss.mmm','mV','mV','mV','mV','mV','mV','mV','mV','mV','mV','mV','mV','mV','mV','mV'
'0:00.000',-0.244,-0.229,0.015,0.237,-0.130,-0.107,-0.044,-0.120,-0.056,0.106,0.197,0.195,-0.002,0.060,-0.009
'0:00.001',-0.242,-0.234,0.009,0.238,-0.126,-0.113,-0.042,-0.117,-0.051,0.110,0.202,0.198,-0.002,0.061,-0.010
'0:00.002',-0.241,-0.234,0.007,0.238,-0.124,-0.114,-0.044,-0.118,-0.053,0.110,0.201,0.197,-0.004,0.056,-0.009
'0:00.003',-0.241,-0.229,0.012,0.235,-0.126,-0.109,-0.045,-0.117,-0.051,0.112,0.201,0.197,-0.002,0.053,-0.008
'0:00.004',-0.232,-0.227,0.004,0.230,-0.118,-0.112,-0.045,-0.117,-0.050,0.112,0.200,0.199,0.001,0.054,-0.009
'0:00.005',-0.226,-0.233,-0.007,0.230,-0.110,-0.120,-0.051,-0.121,-0.053,0.107,0.196,0.194,0.000,0.056,-0.009
'0:00.006',-0.225,-0.236,-0.011,0.231,-0.106,-0.124,-0.052,-0.121,-0.054,0.106,0.194,0.193,0.001,0.058,-0.008
'0:00.007',-0.234,-0.234,0.001,0.234,-0.117,-0.117,-0.049,-0.117,-0.051,0.112,0.199,0.199,0.002,0.052,-0.008
'0:00.008',-0.234,-0.233,0.002,0.234,-0.118,-0.116,-0.051,-0.118,-0.050,0.111,0.201,0.197,0.001,0.048,-0.007
'0:00.009',-0.224,-0.235,-0.012,0.230,-0.105,-0.124,-0.055,-0.120,-0.054,0.108,0.198,0.194,0.000,0.049,-0.006
'0:00.010',-0.221,-0.231,-0.011,0.226,-0.104,-0.121,-0.054,-0.123,-0.054,0.109,0.199,0.195,0.001,0.053,-0.007
'0:00.011',-0.227,-0.228,-0.001,0.228,-0.113,-0.115,-0.057,-0.122,-0.053,0.108,0.198,0.196,0.003,0.062,-0.005
'0:00.012',-0.232,-0.226,0.006,0.229,-0.119,-0.110,-0.053,-0.119,-0.052,0.109,0.198,0.198,0.003,0.061,-0.005
'0:00.013',-0.237,-0.230,0.008,0.234,-0.122,-0.112,-0.051,-0.120,-0.051,0.111,0.199,0.199,0.001,0.050,-0.005
'0:00.014',-0.244,-0.233,0.012,0.238,-0.128,-0.111,-0.049,-0.119,-0.052,0.113,0.199,0.202,0.001,0.053,-0.005
'0:00.015',-0.237,-0.221,0.016,0.229,-0.126,-0.103,-0.051,-0.119,-0.054,0.110,0.198,0.202,0.003,0.059,-0.005
'0:00.016',-0.224,-0.213,0.011,0.218,-0.117,-0.102,-0.056,-0.122,-0.057,0.106,0.196,0.197,0.002,0.058,-0.005
'0:00.017',-0.227,-0.213,0.013,0.220,-0.119,-0.101,-0.053,-0.121,-0.056,0.106,0.198,0.198,0.001,0.059,-0.004
'0:00.018',-0.227,-0.209,0.018,0.218,-0.122,-0.096,-0.052,-0.119,-0.054,0.108,0.201,0.199,0.004,0.066,-0.003
'0:00.019',-0.228,-0.208,0.019,0.218,-0.123,-0.095,-0.052,-0.119,-0.055,0.109,0.202,0.197,0.004,0.067,-0.003
'0:00.020',-0.233,-0.211,0.021,0.222,-0.127,-0.096,-0.052,-0.120,-0.055,0.108,0.203,0.197,0.002,0.057,-0.003
'0:00.021',-0.226,-0.214,0.013,0.220,-0.119,-0.101,-0.052,-0.119,-0.054,0.109,0.202,0.197,-0.001,0.057,-0.004
'0:00.022',-0.226,-0.216,0.009,0.221,-0.117,-0.104,-0.051,-0.119,-0.054,0.108,0.201,0.197,-0.002,0.059,-0.003
'0:00.023',-0.211,-0.203,0.008,0.207,-0.109,-0.098,-0.050,-0.119,-0.052,0.108,0.201,0.199,-0.001,0.062,-0.002
'0:00.024',-0.213,-0.210,0.004,0.211,-0.108,-0.103,-0.051,-0.120,-0.054,0.107,0.199,0.197,0.001,0.061,-0.002
'0:00.025',-0.224,-0.226,-0.002,0.225,-0.111,-0.114,-0.053,-0.121,-0.057,0.104,0.198,0.193,0.000,0.052,-0.004
'0:00.026',-0.220,-0.223,-0.003,0.222,-0.108,-0.113,-0.052,-0.119,-0.058,0.103,0.198,0.194,0.000,0.052,-0.004
'0:00.027',-0.216,-0.220,-0.004,0.218,-0.105,-0.112,-0.051,-0.118,-0.056,0.104,0.198,0.195,0.002,0.052,-0.004
'0:00.028',-0.200,-0.207,-0.007,0.203,-0.096,-0.107,-0.046,-0.113,-0.050,0.111,0.204,0.200,0.003,0.050,-0.005
'0:00.029',-0.197,-0.203,-0.005,0.200,-0.095,-0.104,-0.043,-0.111,-0.046,0.114,0.206,0.203,0.004,0.051,-0.004
'0:00.030',-0.197,-0.202,-0.005,0.199,-0.096,-0.103,-0.044,-0.108,-0.046,0.113,0.205,0.203,0.004,0.048,-0.005
'0:00.031',-0.209,-0.199,0.010,0.204,-0.110,-0.095,-0.041,-0.105,-0.044,0.115,0.206,0.205,0.002,0.047,-0.006
'0:00.032',-0.238,-0.222,0.016,0.231,-0.127,-0.103,-0.049,-0.113,-0.051,0.108,0.199,0.199,0.001,0.051,-0.005
'0:00.033',-0.252,-0.237,0.015,0.244,-0.134,-0.111,-0.051,-0.114,-0.052,0.105,0.197,0.197,0.001,0.044,-0.004
'0:00.034',-0.238,-0.229,0.010,0.234,-0.124,-0.110,-0.045,-0.112,-0.048,0.108,0.200,0.199,0.001,0.044,-0.003
'0:00.035',-0.227,-0.218,0.007,0.223,-0.117,-0.105,-0.044,-0.107,-0.046,0.110,0.202,0.201,0.002,0.051,-0.002
'0:00.036',-0.234,-0.213,0.021,0.224,-0.128,-0.096,-0.040,-0.103,-0.043,0.111,0.204,0.203,0.001,0.052,-0.002
'0:00.037',-0.255,-0.233,0.022,0.243,-0.138,-0.105,-0.045,-0.110,-0.049,0.107,0.199,0.196,0.002,0.044,-0.003
'0:00.038',-0.247,-0.232,0.017,0.239,-0.132,-0.108,-0.046,-0.111,-0.049,0.105,0.198,0.193,0.002,0.042,-0.004
'0:00.039',-0.231,-0.215,0.016,0.223,-0.123,-0.100,-0.045,-0.107,-0.044,0.107,0.201,0.193,0.002,0.052,-0.004
'0:00.040',-0.230,-0.214,0.015,0.222,-0.122,-0.100,-0.046,-0.107,-0.044,0.108,0.200,0.192,0.001,0.048,-0.001
'0:00.041',-0.220,-0.216,0.004,0.218,-0.112,-0.107,-0.049,-0.110,-0.046,0.105,0.194,0.192,-0.001,0.050,-0.001
'0:00.042',-0.214,-0.209,0.005,0.212,-0.110,-0.102,-0.042,-0.104,-0.042,0.113,0.200,0.195,-0.003,0.056,-0.002
'0:00.043',-0.214,-0.207,0.007,0.211,-0.111,-0.100,-0.040,-0.102,-0.038,0.112,0.199,0.195,0.000,0.052,0.001
'0:00.044',-0.228,-0.225,0.003,0.226,-0.115,-0.111,-0.045,-0.107,-0.044,0.105,0.192,0.191,0.001,0.046,0.001
'0:00.045',-0.225,-0.226,-0.002,0.226,-0.112,-0.114,-0.044,-0.108,-0.046,0.103,0.186,0.188,-0.003,0.048,0.001
'0:00.046',-0.213,-0.227,-0.013,0.220,-0.100,-0.120,-0.049,-0.113,-0.050,0.098,0.180,0.183,-0.003,0.051,0.003
'0:00.047',-0.201,-0.219,-0.018,0.210,-0.091,-0.119,-0.044,-0.106,-0.043,0.105,0.187,0.186,-0.002,0.044,0.002
'0:00.048',-0.206,-0.220,-0.013,0.213,-0.097,-0.117,-0.038,-0.104,-0.038,0.110,0.190,0.187,-0.004,0.044,0.000
'0:00.049',-0.228,-0.238,-0.011,0.233,-0.108,-0.125,-0.045,-0.112,-0.044,0.104,0.185,0.180,-0.006,0.045,0.003
'0:00.050',-0.219,-0.238,-0.019,0.229,-0.100,-0.129,-0.047,-0.108,-0.046,0.099,0.178,0.178,-0.001,0.045,0.003
'0:00.051',-0.215,-0.229,-0.013,0.222,-0.101,-0.121,-0.043,-0.106,-0.042,0.101,0.180,0.182,-0.001,0.048,0.005
'0:00.052',-0.215,-0.226,-0.010,0.221,-0.102,-0.118,-0.042,-0.105,-0.041,0.102,0.181,0.183,-0.003,0.044,0.004
'0:00.053',-0.222,-0.228,-0.006,0.225,-0.107,-0.117,-0.036,-0.102,-0.039,0.104,0.181,0.182,-0.004,0.036,0.003
'0:00.054',-0.232,-0.233,-0.002,0.232,-0.115,-0.117,-0.038,-0.103,-0.037,0.104,0.184,0.179,-0.007,0.029,0.004
'0:00.055',-0.228,-0.229,-0.001,0.228,-0.114,-0.115,-0.040,-0.103,-0.038,0.104,0.185,0.177,-0.006,0.037,0.004
'0:00.056',-0.219,-0.220,-0.001,0.220,-0.109,-0.111,-0.040,-0.100,-0.034,0.106,0.187,0.185,-0.002,0.043,0.005
'0:00.057',-0.221,-0.223,-0.002,0.222,-0.109,-0.113,-0.041,-0.099,-0.034,0.105,0.184,0.188,-0.002,0.040,0.005
'0:00.058',-0.227,-0.228,-0.001,0.227,-0.113,-0.115,-0.041,-0.101,-0.038,0.102,0.182,0.181,-0.004,0.040,0.004
'0:00.059',-0.227,-0.226,0.001,0.226,-0.113,-0.113,-0.041,-0.101,-0.036,0.102,0.181,0.180,-0.004,0.041,0.005
'0:00.060',-0.229,-0.227,0.003,0.228,-0.116,-0.112,-0.038,-0.096,-0.032,0.106,0.184,0.181,-0.005,0.036,0.006
'0:00.061',-0.232,-0.231,0.001,0.232,-0.116,-0.116,-0.035,-0.090,-0.028,0.107,0.185,0.180,-0.006,0.040,0.006
'0:00.062',-0.235,-0.235,0.001,0.235,-0.118,-0.117,-0.035,-0.088,-0.029,0.105,0.183,0.181,-0.006,0.035,0.007
'0:00.063',-0.224,-0.240,-0.017,0.232,-0.103,-0.129,-0.043,-0.095,-0.034,0.100,0.173,0.176,-0.004,0.030,0.009
'0:00.064',-0.213,-0.244,-0.030,0.229,-0.091,-0.138,-0.046,-0.096,-0.035,0.098,0.171,0.172,-0.003,0.033,0.009
'0:00.065',-0.216,-0.242,-0.026,0.229,-0.095,-0.135,-0.043,-0.090,-0.029,0.100,0.175,0.174,-0.003,0.025,0.008
'0:00.066',-0.211,-0.245,-0.035,0.229,-0.088,-0.141,-0.043,-0.088,-0.028,0.099,0.171,0.171,-0.003,0.021,0.007
'0:00.067',-0.212,-0.249,-0.036,0.231,-0.088,-0.143,-0.040,-0.087,-0.026,0.100,0.172,0.171,-0.003,0.024,0.006
'0:00.068',-0.218,-0.252,-0.033,0.235,-0.092,-0.142,-0.036,-0.083,-0.022,0.103,0.174,0.173,-0.003,0.024,0.008
'0:00.069',-0.211,-0.253,-0.042,0.232,-0.085,-0.147,-0.035,-0.079,-0.019,0.102,0.171,0.168,-0.005,0.015,0.011
'0:00.070',-0.203,-0.254,-0.050,0.229,-0.076,-0.152,-0.038,-0.082,-0.023,0.099,0.164,0.161,-0.007,0.018,0.009
'0:00.071',-0.201,-0.243,-0.042,0.222,-0.080,-0.142,-0.035,-0.077,-0.017,0.103,0.168,0.162,-0.007,0.016,0.010
'0:00.072',-0.204,-0.236,-0.031,0.220,-0.086,-0.134,-0.029,-0.067,-0.004,0.113,0.172,0.163,-0.010,0.009,0.009
'0:00.073',-0.231,-0.262,-0.032,0.246,-0.100,-0.147,-0.035,-0.072,-0.010,0.110,0.166,0.155,-0.012,0.011,0.008
'0:00.074',-0.233,-0.275,-0.042,0.254,-0.096,-0.159,-0.042,-0.080,-0.018,0.099,0.161,0.151,-0.010,0.006,0.013
'0:00.075',-0.217,-0.267,-0.049,0.242,-0.084,-0.158,-0.042,-0.074,-0.015,0.102,0.160,0.154,-0.007,0.003,0.013
'0:00.076',-0.222,-0.260,-0.037,0.241,-0.092,-0.149,-0.039,-0.070,-0.008,0.105,0.164,0.159,-0.005,0.004,0.013
'0:00.077',-0.225,-0.260,-0.035,0.242,-0.095,-0.147,-0.039,-0.071,-0.007,0.102,0.162,0.155,-0.005,0.006,0.013
'0:00.078',-0.213,-0.261,-0.048,0.237,-0.083,-0.154,-0.042,-0.070,-0.008,0.101,0.160,0.153,-0.006,0.007,0.012
'0:00.079',-0.208,-0.259,-0.050,0.234,-0.079,-0.154,-0.043,-0.070,-0.009,0.097,0.154,0.150,-0.007,0.007,0.013
'0:00.080',-0.214,-0.263,-0.049,0.238,-0.083,-0.156,-0.043,-0.067,-0.006,0.097,0.153,0.148,-0.009,0.000,0.013
'0:00.081',-0.211,-0.266,-0.054,0.239,-0.079,-0.161,-0.039,-0.060,-0.001,0.102,0.156,0.150,-0.009,-0.004,0.013
'0:00.082',-0.208,-0.270,-0.060,0.239,-0.073,-0.166,-0.038,-0.058,0.002,0.102,0.155,0.148,-0.009,-0.003,0.015
'0:00.083',-0.208,-0.275,-0.067,0.241,-0.070,-0.171,-0.040,-0.054,0.004,0.101,0.153,0.145,-0.009,-0.006,0.017
'0:00.084',-0.210,-0.282,-0.071,0.246,-0.070,-0.177,-0.041,-0.051,0.006,0.101,0.150,0.142,-0.009,-0.011,0.018
'0:00.085',-0.215,-0.285,-0.070,0.250,-0.073,-0.177,-0.037,-0.044,0.013,0.104,0.153,0.148,-0.006,-0.015,0.019
'0:00.086',-0.211,-0.289,-0.078,0.251,-0.067,-0.184,-0.037,-0.041,0.015,0.104,0.150,0.145,-0.007,-0.013,0.020
'0:00.087',-0.204,-0.284,-0.081,0.244,-0.061,-0.182,-0.032,-0.033,0.022,0.109,0.152,0.145,-0.007,-0.018,0.018
'0:00.088',-0.193,-0.287,-0.094,0.240,-0.049,-0.191,-0.035,-0.034,0.022,0.106,0.145,0.141,-0.006,-0.023,0.022
'0:00.089',-0.177,-0.299,-0.122,0.238,-0.028,-0.211,-0.045,-0.041,0.014,0.095,0.130,0.125,-0.009,-0.028,0.025
'0:00.090',-0.201,-0.309,-0.108,0.255,-0.046,-0.209,-0.040,-0.032,0.024,0.101,0.133,0.128,-0.011,-0.033,0.024
'0:00.091',-0.190,-0.297,-0.107,0.243,-0.042,-0.202,-0.032,-0.021,0.035,0.109,0.139,0.133,-0.009,-0.034,0.026
'0:00.092',-0.162,-0.272,-0.110,0.216,-0.026,-0.191,-0.022,-0.005,0.047,0.119,0.145,0.141,-0.006,-0.038,0.025
'0:00.093',-0.193,-0.297,-0.104,0.244,-0.043,-0.201,-0.025,-0.005,0.048,0.116,0.140,0.136,-0.005,-0.040,0.025
'0:00.094',-0.200,-0.323,-0.123,0.262,-0.038,-0.224,-0.036,-0.013,0.041,0.104,0.129,0.122,-0.007,-0.043,0.027
'0:00.095',-0.195,-0.324,-0.130,0.259,-0.032,-0.227,-0.038,-0.011,0.045,0.105,0.126,0.119,-0.007,-0.048,0.027
'0:00.096',-0.188,-0.316,-0.128,0.252,-0.030,-0.223,-0.035,-0.004,0.051,0.107,0.126,0.120,-0.006,-0.052,0.027
'0:00.097',-0.194,-0.311,-0.117,0.253,-0.038,-0.214,-0.025,0.009,0.062,0.116,0.131,0.126,-0.007,-0.056,0.029
'0:00.098',-0.212,-0.322,-0.109,0.268,-0.051,-0.216,-0.022,0.015,0.068,0.118,0.129,0.124,-0.007,-0.054,0.030
'0:00.099',-0.192,-0.323,-0.131,0.258,-0.030,-0.227,-0.029,0.015,0.066,0.114,0.120,0.117,-0.006,-0.055,0.030
'0:00.100',-0.167,-0.321,-0.153,0.244,-0.007,-0.237,-0.032,0.017,0.069,0.111,0.117,0.111,-0.006,-0.061,0.034
'0:00.101',-0.162,-0.320,-0.159,0.240,-0.002,-0.239,-0.025,0.024,0.078,0.117,0.119,0.114,-0.007,-0.066,0.035
'0:00.102',-0.168,-0.330,-0.162,0.249,-0.003,-0.246,-0.023,0.033,0.086,0.122,0.116,0.112,-0.006,-0.064,0.038
'0:00.103',-0.162,-0.338,-0.175,0.250,0.007,-0.257,-0.025,0.035,0.089,0.121,0.112,0.106,-0.006,-0.067,0.041
'0:00.104',-0.157,-0.343,-0.185,0.249,0.015,-0.265,-0.025,0.041,0.093,0.121,0.108,0.105,-0.005,-0.077,0.041
'0:00.105',-0.166,-0.362,-0.197,0.264,0.015,-0.280,-0.029,0.039,0.092,0.116,0.102,0.095,-0.005,-0.092,0.040
'0:00.106',-0.151,-0.360,-0.209,0.256,0.029,-0.285,-0.026,0.044,0.100,0.120,0.101,0.095,-0.006,-0.100,0.040
'0:00.107',-0.146,-0.357,-0.211,0.252,0.033,-0.284,-0.021,0.054,0.111,0.126,0.102,0.098,-0.004,-0.102,0.041
'0:00.108',-0.152,-0.365,-0.212,0.259,0.030,-0.289,-0.019,0.059,0.117,0.129,0.101,0.097,-0.004,-0.109,0.042
'0:00.109',-0.146,-0.365,-0.220,0.256,0.037,-0.292,-0.017,0.069,0.122,0.130,0.101,0.098,-0.004,-0.107,0.045
'0:00.110',-0.141,-0.367,-0.226,0.254,0.043,-0.297,-0.017,0.076,0.130,0.130,0.100,0.097,-0.003,-0.105,0.046
'0:00.111',-0.142,-0.362,-0.220,0.252,0.040,-0.291,-0.015,0.083,0.140,0.135,0.101,0.095,-0.003,-0.105,0.047
'0:00.112',-0.145,-0.368,-0.224,0.257,0.040,-0.296,-0.017,0.086,0.144,0.134,0.098,0.090,-0.003,-0.111,0.046
'0:00.113',-0.161,-0.381,-0.221,0.271,0.030,-0.301,-0.013,0.092,0.152,0.139,0.099,0.090,-0.001,-0.123,0.048
'0:00.114',-0.156,-0.382,-0.226,0.269,0.035,-0.304,-0.015,0.096,0.155,0.137,0.093,0.087,-0.001,-0.129,0.051
'0:00.115',-0.139,-0.386,-0.248,0.262,0.055,-0.317,-0.023,0.095,0.152,0.129,0.083,0.078,-0.002,-0.127,0.052
'0:00.116',-0.136,-0.374,-0.238,0.255,0.051,-0.306,-0.015,0.107,0.167,0.139,0.089,0.085,0.003,-0.130,0.054
'0:00.117',-0.137,-0.366,-0.229,0.252,0.046,-0.298,-0.004,0.120,0.180,0.147,0.095,0.089,0.004,-0.134,0.056
'0:00.118',-0.154,-0.385,-0.231,0.269,0.038,-0.307,-0.004,0.123,0.183,0.145,0.088,0.085,0.001,-0.136,0.054
'0:00.119',-0.135,-0.389,-0.254,0.262,0.059,-0.321,-0.011,0.123,0.182,0.139,0.079,0.074,0.000,-0.135,0.057
'0:00.120',-0.117,-0.395,-0.277,0.256,0.080,-0.336,-0.018,0.121,0.181,0.135,0.070,0.062,-0.001,-0.135,0.059
'0:00.121',-0.124,-0.401,-0.277,0.263,0.076,-0.339,-0.015,0.131,0.191,0.140,0.072,0.063,-0.001,-0.145,0.057
'0:00.122',-0.125,-0.400,-0.275,0.263,0.075,-0.338,-0.009,0.141,0.201,0.144,0.074,0.067,0.000,-0.148,0.061
'0:00.123',-0.139,-0.405,-0.267,0.272,0.064,-0.336,-0.002,0.152,0.210,0.149,0.074,0.069,0.002,-0.149,0.060
'0:00.124',-0.120,-0.413,-0.293,0.267,0.087,-0.354,-0.009,0.149,0.209,0.145,0.068,0.059,0.001,-0.158,0.060
'0:00.125',-0.091,-0.418,-0.327,0.255,0.118,-0.373,-0.015,0.148,0.210,0.141,0.059,0.049,0.001,-0.164,0.062
'0:00.126',-0.088,-0.414,-0.327,0.252,0.119,-0.370,-0.009,0.163,0.221,0.148,0.063,0.053,0.002,-0.171,0.063
'0:00.127',-0.089,-0.419,-0.329,0.254,0.120,-0.374,-0.009,0.169,0.228,0.151,0.060,0.051,0.002,-0.181,0.063
'0:00.128',-0.093,-0.428,-0.336,0.261,0.121,-0.383,-0.005,0.173,0.234,0.153,0.060,0.044,-0.002,-0.188,0.061
'0:00.129',-0.077,-0.428,-0.351,0.253,0.137,-0.390,-0.004,0.179,0.237,0.152,0.056,0.045,0.000,-0.189,0.065
'0:00.130',-0.078,-0.434,-0.356,0.256,0.140,-0.395,-0.004,0.184,0.241,0.153,0.051,0.045,0.000,-0.192,0.065
'0:00.131',-0.090,-0.441,-0.351,0.266,0.131,-0.397,-0.004,0.188,0.245,0.153,0.050,0.042,-0.002,-0.198,0.066
'0:00.132',-0.097,-0.448,-0.351,0.273,0.127,-0.400,-0.004,0.192,0.252,0.154,0.046,0.039,-0.001,-0.202,0.065
'0:00.133',-0.099,-0.450,-0.351,0.274,0.127,-0.401,0.002,0.199,0.262,0.160,0.049,0.040,0.001,-0.201,0.065
'0:00.134',-0.094,-0.444,-0.349,0.269,0.128,-0.397,0.006,0.207,0.269,0.164,0.051,0.043,0.003,-0.198,0.069
'0:00.135',-0.102,-0.446,-0.344,0.274,0.121,-0.395,0.009,0.215,0.277,0.169,0.053,0.043,0.004,-0.201,0.071
'0:00.136',-0.092,-0.448,-0.355,0.270,0.132,-0.402,0.007,0.218,0.278,0.167,0.051,0.040,0.005,-0.201,0.074
'0:00.137',-0.092,-0.450,-0.358,0.271,0.133,-0.404,0.007,0.222,0.282,0.168,0.051,0.036,0.004,-0.203,0.071
'0:00.138',-0.082,-0.447,-0.365,0.264,0.142,-0.406,0.009,0.228,0.290,0.172,0.052,0.036,0.003,-0.205,0.069
'0:00.139',-0.075,-0.443,-0.367,0.259,0.146,-0.405,0.013,0.237,0.298,0.176,0.054,0.036,0.004,-0.201,0.069
'0:00.140',-0.079,-0.445,-0.366,0.262,0.143,-0.406,0.017,0.241,0.305,0.179,0.053,0.036,0.004,-0.206,0.070
'0:00.141',-0.067,-0.451,-0.384,0.259,0.159,-0.417,0.017,0.245,0.307,0.176,0.048,0.033,0.004,-0.215,0.069
'0:00.142',-0.072,-0.458,-0.386,0.265,0.158,-0.422,0.018,0.250,0.310,0.176,0.047,0.029,0.004,-0.217,0.068
'0:00.143',-0.059,-0.452,-0.393,0.255,0.168,-0.422,0.020,0.257,0.316,0.178,0.045,0.029,0.007,-0.214,0.069
'0:00.144',-0.052,-0.448,-0.395,0.250,0.172,-0.421,0.024,0.264,0.325,0.181,0.044,0.029,0.006,-0.212,0.069
'0:00.145',-0.051,-0.452,-0.401,0.251,0.175,-0.426,0.025,0.266,0.327,0.181,0.042,0.022,0.006,-0.214,0.069
'0:00.146',-0.049,-0.458,-0.410,0.253,0.181,-0.434,0.025,0.270,0.330,0.180,0.038,0.021,0.007,-0.221,0.070
'0:00.147',-0.047,-0.457,-0.409,0.252,0.181,-0.433,0.025,0.276,0.336,0.183,0.038,0.019,0.007,-0.228,0.067
'0:00.148',-0.038,-0.453,-0.414,0.245,0.189,-0.434,0.026,0.282,0.342,0.188,0.039,0.021,0.010,-0.232,0.069
'0:00.149',-0.034,-0.453,-0.420,0.243,0.194,-0.437,0.029,0.288,0.348,0.190,0.037,0.021,0.011,-0.234,0.070
'0:00.150',-0.014,-0.441,-0.426,0.227,0.206,-0.433,0.035,0.298,0.357,0.196,0.039,0.021,0.009,-0.232,0.068
'0:00.151',-0.019,-0.440,-0.420,0.230,0.201,-0.430,0.039,0.302,0.362,0.196,0.038,0.021,0.011,-0.225,0.068
'0:00.152',-0.029,-0.442,-0.412,0.235,0.193,-0.427,0.041,0.307,0.369,0.200,0.038,0.022,0.011,-0.226,0.067
'0:00.153',-0.037,-0.447,-0.409,0.241,0.186,-0.428,0.045,0.318,0.378,0.205,0.038,0.025,0.011,-0.233,0.067
'0:00.154',-0.025,-0.438,-0.412,0.232,0.194,-0.425,0.045,0.319,0.380,0.203,0.034,0.020,0.011,-0.234,0.066
'0:00.155',-0.011,-0.423,-0.411,0.217,0.200,-0.417,0.051,0.328,0.389,0.208,0.038,0.022,0.010,-0.233,0.066
'0:00.156',-0.017,-0.421,-0.406,0.219,0.195,-0.414,0.055,0.335,0.396,0.212,0.037,0.021,0.009,-0.231,0.065
'0:00.157',-0.021,-0.439,-0.417,0.230,0.198,-0.428,0.048,0.329,0.392,0.203,0.025,0.013,0.011,-0.231,0.066
'0:00.158',-0.055,-0.476,-0.421,0.266,0.183,-0.449,0.035,0.320,0.382,0.191,0.011,-0.001,0.011,-0.229,0.065
'0:00.159',-0.065,-0.480,-0.416,0.272,0.176,-0.449,0.035,0.322,0.386,0.191,0.010,-0.004,0.011,-0.228,0.064
'0:00.160',-0.040,-0.461,-0.421,0.251,0.191,-0.441,0.047,0.336,0.401,0.202,0.019,0.004,0.009,-0.234,0.064
'0:00.161',-0.007,-0.439,-0.431,0.223,0.212,-0.435,0.057,0.346,0.410,0.208,0.025,0.005,0.008,-0.232,0.061
'0:00.162',-0.034,-0.461,-0.427,0.247,0.197,-0.445,0.053,0.345,0.408,0.205,0.020,-0.002,0.009,-0.239,0.062
'0:00.163',-0.051,-0.481,-0.430,0.267,0.190,-0.456,0.048,0.342,0.406,0.200,0.010,-0.003,0.013,-0.241,0.062
'0:00.164',-0.030,-0.467,-0.436,0.248,0.203,-0.452,0.055,0.350,0.416,0.206,0.015,-0.002,0.011,-0.231,0.061
'0:00.165',-0.037,-0.467,-0.430,0.252,0.197,-0.449,0.061,0.357,0.423,0.213,0.022,-0.003,0.010,-0.238,0.059
'0:00.166',-0.036,-0.465,-0.428,0.251,0.196,-0.447,0.066,0.365,0.429,0.217,0.025,0.002,0.008,-0.240,0.057
'0:00.167',-0.020,-0.459,-0.439,0.239,0.209,-0.449,0.066,0.367,0.430,0.216,0.022,0.002,0.010,-0.245,0.057
'0:00.168',0.001,-0.461,-0.462,0.230,0.232,-0.462,0.059,0.361,0.425,0.209,0.013,-0.005,0.014,-0.251,0.059
'0:00.169',0.011,-0.466,-0.477,0.227,0.244,-0.472,0.057,0.358,0.422,0.206,0.011,-0.010,0.013,-0.246,0.057
'0:00.170',0.005,-0.460,-0.465,0.227,0.235,-0.463,0.065,0.367,0.429,0.211,0.016,-0.004,0.013,-0.244,0.053
'0:00.171',-0.017,-0.457,-0.440,0.236,0.212,-0.449,0.074,0.379,0.440,0.219,0.022,0.002,0.013,-0.243,0.053
'0:00.172',-0.024,-0.459,-0.435,0.241,0.206,-0.448,0.077,0.379,0.441,0.220,0.025,0.003,0.012,-0.246,0.050
'0:00.173',-0.013,-0.455,-0.442,0.234,0.214,-0.449,0.082,0.385,0.446,0.225,0.026,0.004,0.011,-0.247,0.048
'0:00.174',0.003,-0.445,-0.448,0.221,0.226,-0.447,0.085,0.388,0.450,0.230,0.026,0.004,0.011,-0.248,0.047
'0:00.175',-0.013,-0.455,-0.443,0.234,0.215,-0.449,0.083,0.385,0.447,0.225,0.026,0.004,0.011,-0.247,0.048
'0:00.176',-0.022,-0.458,-0.435,0.240,0.207,-0.447,0.082,0.385,0.446,0.224,0.028,0.004,0.011,-0.244,0.047
'0:00.177',-0.021,-0.447,-0.426,0.234,0.203,-0.436,0.086,0.390,0.451,0.228,0.030,0.005,0.011,-0.236,0.043
'0:00.178',-0.033,-0.455,-0.423,0.243,0.196,-0.439,0.087,0.390,0.453,0.228,0.030,0.004,0.011,-0.233,0.041
'0:00.179',-0.034,-0.451,-0.417,0.242,0.192,-0.434,0.094,0.394,0.457,0.231,0.034,0.006,0.010,-0.234,0.040
'0:00.180',-0.040,-0.450,-0.410,0.244,0.185,-0.430,0.099,0.397,0.458,0.233,0.036,0.011,0.012,-0.231,0.042
'0:00.181',-0.018,-0.451,-0.432,0.235,0.207,-0.442,0.095,0.389,0.451,0.228,0.030,0.007,0.014,-0.232,0.040
'0:00.182',-0.011,-0.450,-0.440,0.231,0.214,-0.445,0.097,0.387,0.448,0.224,0.029,0.005,0.012,-0.231,0.036
'0:00.183',-0.011,-0.448,-0.436,0.230,0.213,-0.443,0.099,0.390,0.452,0.226,0.031,0.009,0.014,-0.231,0.035
'0:00.184',0.000,-0.434,-0.434,0.217,0.217,-0.434,0.102,0.394,0.457,0.230,0.036,0.017,0.014,-0.231,0.034
'0:00.185',-0.003,-0.440,-0.436,0.221,0.217,-0.439,0.102,0.392,0.454,0.228,0.035,0.018,0.015,-0.237,0.032
'0:00.186',-0.013,-0.452,-0.439,0.232,0.213,-0.446,0.103,0.389,0.449,0.225,0.033,0.016,0.017,-0.236,0.032
'0:00.187',-0.018,-0.450,-0.432,0.234,0.207,-0.441,0.107,0.395,0.453,0.229,0.035,0.018,0.015,-0.226,0.030
'0:00.188',-0.018,-0.447,-0.428,0.232,0.205,-0.438,0.110,0.397,0.455,0.232,0.040,0.020,0.014,-0.228,0.030
'0:00.189',-0.020,-0.443,-0.423,0.231,0.202,-0.433,0.115,0.397,0.456,0.236,0.046,0.024,0.013,-0.226,0.028
'0:00.190',-0.022,-0.435,-0.413,0.229,0.196,-0.424,0.116,0.400,0.460,0.238,0.048,0.028,0.015,-0.223,0.026
'0:00.191',-0.028,-0.432,-0.405,0.230,0.189,-0.419,0.115,0.399,0.457,0.237,0.049,0.026,0.015,-0.221,0.026
'0:00.192',-0.022,-0.433,-0.410,0.228,0.195,-0.422,0.115,0.395,0.454,0.236,0.048,0.025,0.015,-0.220,0.021
'0:00.193',-0.031,-0.438,-0.406,0.234,0.188,-0.422,0.117,0.394,0.452,0.236,0.050,0.027,0.017,-0.219,0.020
'0:00.194',-0.041,-0.431,-0.391,0.236,0.175,-0.411,0.120,0.395,0.453,0.240,0.056,0.031,0.014,-0.208,0.018
'0:00.195',-0.046,-0.426,-0.380,0.236,0.167,-0.403,0.125,0.395,0.453,0.240,0.058,0.033,0.011,-0.204,0.017
'0:00.196',-0.046,-0.430,-0.384,0.238,0.170,-0.407,0.125,0.392,0.449,0.237,0.056,0.032,0.012,-0.210,0.015
'0:00.197',-0.042,-0.423,-0.381,0.232,0.170,-0.403,0.128,0.393,0.450,0.239,0.059,0.034,0.013,-0.204,0.011
'0:00.198',-0.038,-0.414,-0.375,0.226,0.169,-0.395,0.130,0.394,0.449,0.240,0.062,0.037,0.013,-0.199,0.011
'0:00.199',-0.026,-0.415,-0.389,0.221,0.181,-0.402,0.126,0.386,0.441,0.234,0.057,0.032,0.012,-0.201,0.009
'0:00.200',-0.035,-0.421,-0.387,0.228,0.176,-0.404,0.126,0.382,0.438,0.231,0.057,0.031,0.012,-0.197,0.009
'0:00.201',-0.037,-0.422,-0.386,0.230,0.174,-0.404,0.129,0.385,0.438,0.234,0.060,0.034,0.011,-0.198,0.006
'0:00.202',-0.035,-0.421,-0.385,0.228,0.175,-0.403,0.132,0.384,0.436,0.234,0.061,0.035,0.009,-0.194,0.005
'0:00.203',-0.040,-0.421,-0.382,0.231,0.172,-0.402,0.133,0.382,0.433,0.234,0.062,0.038,0.009,-0.188,0.004
'0:00.204',-0.045,-0.422,-0.377,0.234,0.166,-0.400,0.136,0.383,0.432,0.235,0.066,0.038,0.009,-0.182,0.001
'0:00.205',-0.049,-0.420,-0.370,0.234,0.161,-0.396,0.139,0.383,0.430,0.235,0.070,0.044,0.010,-0.172,0.001
'0:00.206',-0.040,-0.417,-0.378,0.229,0.169,-0.398,0.139,0.377,0.427,0.234,0.070,0.043,0.009,-0.180,-0.001
'0:00.207',-0.026,-0.407,-0.382,0.217,0.177,-0.395,0.142,0.376,0.425,0.234,0.072,0.044,0.010,-0.186,-0.005
'0:00.208',-0.029,-0.396,-0.367,0.212,0.170,-0.382,0.149,0.378,0.428,0.240,0.081,0.051,0.008,-0.180,-0.006
'0:00.209',-0.029,-0.389,-0.360,0.208,0.166,-0.374,0.150,0.376,0.427,0.241,0.084,0.054,0.006,-0.172,-0.006
'0:00.210',-0.033,-0.391,-0.358,0.212,0.163,-0.374,0.147,0.368,0.419,0.236,0.080,0.051,0.007,-0.170,-0.009
'0:00.211',-0.064,-0.406,-0.343,0.234,0.140,-0.374,0.147,0.361,0.412,0.232,0.079,0.046,0.004,-0.167,-0.011
'0:00.212',-0.054,-0.400,-0.345,0.227,0.145,-0.373,0.148,0.359,0.409,0.232,0.080,0.049,0.005,-0.169,-0.013
'0:00.213',-0.054,-0.396,-0.341,0.225,0.143,-0.368,0.151,0.358,0.410,0.234,0.081,0.055,0.006,-0.174,-0.015
'0:00.214',-0.060,-0.381,-0.320,0.221,0.130,-0.350,0.162,0.363,0.415,0.240,0.089,0.065,0.004,-0.171,-0.014
'0:00.215',-0.048,-0.360,-0.312,0.203,0.133,-0.337,0.167,0.364,0.416,0.244,0.099,0.070,0.001,-0.164,-0.015
'0:00.216',-0.065,-0.377,-0.313,0.221,0.124,-0.345,0.162,0.353,0.404,0.236,0.092,0.062,-0.001,-0.158,-0.017
'0:00.217',-0.081,-0.391,-0.309,0.235,0.115,-0.350,0.158,0.344,0.394,0.227,0.086,0.058,0.003,-0.154,-0.017
'0:00.218',-0.080,-0.387,-0.307,0.233,0.114,-0.347,0.158,0.340,0.391,0.225,0.087,0.058,0.004,-0.150,-0.020
'0:00.219',-0.075,-0.376,-0.300,0.226,0.113,-0.339,0.165,0.339,0.392,0.230,0.093,0.064,-0.001,-0.146,-0.022
'0:00.220',-0.083,-0.375,-0.292,0.229,0.105,-0.334,0.168,0.338,0.391,0.231,0.097,0.066,-0.004,-0.141,-0.025
'0:00.221',-0.076,-0.375,-0.299,0.226,0.112,-0.338,0.167,0.334,0.386,0.231,0.097,0.066,-0.005,-0.141,-0.027
'0:00.222',-0.074,-0.377,-0.302,0.226,0.114,-0.340,0.167,0.330,0.380,0.226,0.095,0.065,-0.007,-0.141,-0.028
'0:00.223',-0.077,-0.379,-0.301,0.228,0.112,-0.340,0.166,0.326,0.373,0.222,0.093,0.064,-0.009,-0.143,-0.029
'0:00.224',-0.074,-0.373,-0.300,0.224,0.113,-0.337,0.168,0.325,0.371,0.223,0.095,0.068,-0.007,-0.142,-0.029
'0:00.225',-0.080,-0.377,-0.297,0.229,0.109,-0.338,0.169,0.323,0.368,0.221,0.093,0.070,-0.008,-0.141,-0.030
'0:00.226',-0.084,-0.379,-0.295,0.232,0.106,-0.337,0.167,0.318,0.365,0.221,0.093,0.072,-0.007,-0.140,-0.033
'0:00.227',-0.083,-0.376,-0.293,0.230,0.105,-0.335,0.168,0.312,0.358,0.220,0.094,0.074,-0.009,-0.134,-0.034
'0:00.228',-0.083,-0.374,-0.291,0.229,0.104,-0.333,0.172,0.310,0.356,0.220,0.098,0.075,-0.011,-0.135,-0.035
'0:00.229',-0.095,-0.374,-0.280,0.234,0.093,-0.328,0.177,0.311,0.359,0.224,0.104,0.080,-0.011,-0.129,-0.036
'0:00.230',-0.080,-0.368,-0.288,0.224,0.104,-0.329,0.174,0.306,0.351,0.220,0.102,0.074,-0.014,-0.122,-0.038
'0:00.231',-0.079,-0.362,-0.283,0.221,0.102,-0.323,0.171,0.296,0.344,0.217,0.102,0.072,-0.014,-0.117,-0.041
'0:00.232',-0.092,-0.362,-0.270,0.227,0.089,-0.317,0.175,0.296,0.342,0.217,0.105,0.081,-0.012,-0.115,-0.043
'0:00.233',-0.095,-0.362,-0.267,0.229,0.086,-0.315,0.176,0.292,0.340,0.215,0.107,0.084,-0.013,-0.112,-0.042
'0:00.234',-0.086,-0.345,-0.260,0.215,0.087,-0.303,0.180,0.293,0.339,0.217,0.113,0.086,-0.015,-0.109,-0.043
'0:00.235',-0.075,-0.335,-0.259,0.205,0.092,-0.297,0.180,0.290,0.336,0.216,0.114,0.088,-0.013,-0.105,-0.043
'0:00.236',-0.098,-0.348,-0.251,0.223,0.076,-0.300,0.178,0.283,0.328,0.212,0.110,0.086,-0.014,-0.102,-0.042
'0:00.237',-0.099,-0.343,-0.244,0.221,0.073,-0.293,0.181,0.280,0.325,0.213,0.114,0.089,-0.015,-0.104,-0.044
'0:00.238',-0.090,-0.332,-0.242,0.211,0.076,-0.287,0.181,0.278,0.323,0.213,0.115,0.092,-0.016,-0.096,-0.045
'0:00.239',-0.101,-0.337,-0.236,0.218,0.069,-0.287,0.182,0.275,0.319,0.210,0.115,0.092,-0.018,-0.090,-0.046
'0:00.240',-0.106,-0.344,-0.237,0.226,0.066,-0.291,0.181,0.268,0.315,0.208,0.115,0.092,-0.018,-0.090,-0.045
'0:00.241',-0.110,-0.347,-0.238,0.229,0.065,-0.293,0.182,0.265,0.311,0.209,0.115,0.093,-0.018,-0.090,-0.047
'0:00.242',-0.116,-0.352,-0.236,0.234,0.060,-0.295,0.180,0.259,0.305,0.204,0.112,0.092,-0.018,-0.089,-0.046
'0:00.243',-0.111,-0.347,-0.237,0.229,0.064,-0.292,0.180,0.256,0.302,0.203,0.112,0.093,-0.018,-0.085,-0.046
'0:00.244',-0.102,-0.341,-0.239,0.221,0.070,-0.290,0.182,0.255,0.301,0.204,0.117,0.099,-0.018,-0.084,-0.045
'0:00.245',-0.099,-0.344,-0.244,0.222,0.072,-0.294,0.179,0.251,0.295,0.200,0.117,0.093,-0.020,-0.081,-0.047
'0:00.246',-0.112,-0.341,-0.229,0.226,0.059,-0.285,0.187,0.255,0.298,0.205,0.122,0.101,-0.021,-0.079,-0.046
'0:00.247',-0.108,-0.337,-0.229,0.223,0.060,-0.283,0.187,0.249,0.295,0.204,0.125,0.107,-0.019,-0.081,-0.046
'0:00.248',-0.086,-0.322,-0.235,0.203,0.075,-0.279,0.186,0.247,0.290,0.204,0.127,0.107,-0.021,-0.086,-0.046
'0:00.249',-0.084,-0.318,-0.234,0.201,0.075,-0.276,0.190,0.251,0.292,0.205,0.130,0.111,-0.023,-0.087,-0.046
'0:00.250',-0.102,-0.327,-0.224,0.214,0.061,-0.276,0.190,0.246,0.288,0.206,0.131,0.111,-0.022,-0.079,-0.050
'0:00.251',-0.132,-0.341,-0.208,0.236,0.038,-0.275,0.183,0.237,0.280,0.202,0.131,0.104,-0.025,-0.076,-0.049
'0:00.252',-0.120,-0.347,-0.228,0.234,0.054,-0.288,0.177,0.228,0.271,0.194,0.126,0.095,-0.028,-0.076,-0.053
'0:00.253',-0.105,-0.335,-0.230,0.220,0.062,-0.282,0.182,0.230,0.273,0.197,0.129,0.107,-0.024,-0.078,-0.053
'0:00.254',-0.112,-0.327,-0.215,0.219,0.052,-0.272,0.182,0.230,0.273,0.199,0.132,0.116,-0.018,-0.079,-0.050
'0:00.255',-0.120,-0.330,-0.209,0.225,0.045,-0.270,0.181,0.226,0.269,0.197,0.132,0.114,-0.019,-0.074,-0.051
'0:00.256',-0.146,-0.338,-0.191,0.242,0.022,-0.265,0.182,0.224,0.267,0.197,0.135,0.117,-0.021,-0.073,-0.050
'0:00.257',-0.161,-0.342,-0.181,0.251,0.011,-0.262,0.182,0.221,0.265,0.199,0.139,0.119,-0.022,-0.071,-0.050
'0:00.258',-0.137,-0.338,-0.200,0.237,0.032,-0.269,0.177,0.212,0.260,0.194,0.136,0.115,-0.021,-0.065,-0.053
'0:00.259',-0.132,-0.330,-0.199,0.231,0.034,-0.265,0.175,0.209,0.256,0.192,0.135,0.113,-0.022,-0.068,-0.053
'0:00.260',-0.142,-0.332,-0.189,0.237,0.023,-0.260,0.178,0.209,0.256,0.193,0.138,0.113,-0.026,-0.071,-0.053
'0:00.261',-0.144,-0.337,-0.193,0.240,0.025,-0.265,0.177,0.206,0.254,0.191,0.139,0.116,-0.026,-0.072,-0.054
'0:00.262',-0.150,-0.338,-0.188,0.243,0.019,-0.263,0.180,0.206,0.252,0.192,0.140,0.123,-0.022,-0.079,-0.054
'0:00.263',-0.140,-0.337,-0.198,0.238,0.029,-0.268,0.176,0.201,0.246,0.188,0.137,0.122,-0.021,-0.078,-0.055
'0:00.264',-0.130,-0.335,-0.204,0.233,0.037,-0.270,0.173,0.196,0.242,0.184,0.136,0.119,-0.022,-0.075,-0.054
'0:00.265',-0.126,-0.333,-0.206,0.230,0.040,-0.270,0.175,0.196,0.241,0.185,0.139,0.120,-0.023,-0.080,-0.054
'0:00.266',-0.131,-0.331,-0.200,0.231,0.035,-0.266,0.178,0.195,0.242,0.189,0.144,0.124,-0.024,-0.073,-0.054
'0:00.267',-0.120,-0.328,-0.207,0.224,0.043,-0.268,0.176,0.188,0.234,0.184,0.142,0.120,-0.026,-0.070,-0.056
'0:00.268',-0.117,-0.330,-0.212,0.224,0.048,-0.272,0.174,0.188,0.234,0.182,0.141,0.114,-0.033,-0.074,-0.054
'0:00.269',-0.119,-0.324,-0.204,0.222,0.043,-0.265,0.177,0.192,0.239,0.189,0.144,0.119,-0.032,-0.072,-0.053
'0:00.270',-0.124,-0.327,-0.203,0.226,0.040,-0.265,0.174,0.185,0.233,0.184,0.141,0.117,-0.032,-0.070,-0.057
'0:00.271',-0.153,-0.338,-0.185,0.246,0.016,-0.262,0.173,0.179,0.229,0.180,0.139,0.120,-0.030,-0.060,-0.054
'0:00.272',-0.161,-0.336,-0.174,0.248,0.007,-0.255,0.173,0.178,0.229,0.182,0.141,0.123,-0.029,-0.055,-0.055
'0:00.273',-0.153,-0.335,-0.182,0.244,0.015,-0.259,0.173,0.179,0.227,0.180,0.141,0.121,-0.030,-0.058,-0.056
'0:00.274',-0.146,-0.334,-0.187,0.240,0.021,-0.261,0.170,0.177,0.224,0.176,0.140,0.124,-0.029,-0.056,-0.054
'0:00.275',-0.149,-0.329,-0.180,0.239,0.016,-0.255,0.167,0.175,0.225,0.179,0.143,0.124,-0.029,-0.053,-0.056
'0:00.276',-0.160,-0.330,-0.170,0.244,0.005,-0.250,0.171,0.174,0.223,0.179,0.144,0.125,-0.029,-0.057,-0.054
'0:00.277',-0.171,-0.333,-0.162,0.252,-0.004,-0.247,0.175,0.175,0.221,0.179,0.144,0.127,-0.032,-0.069,-0.054
'0:00.278',-0.165,-0.329,-0.164,0.246,-0.001,-0.246,0.174,0.176,0.222,0.179,0.145,0.127,-0.034,-0.063,-0.057
'0:00.279',-0.167,-0.325,-0.158,0.245,-0.004,-0.241,0.174,0.176,0.221,0.179,0.144,0.129,-0.031,-0.060,-0.056
'0:00.280',-0.157,-0.331,-0.173,0.243,0.009,-0.252,0.171,0.171,0.216,0.176,0.141,0.126,-0.030,-0.061,-0.054
'0:00.281',-0.135,-0.334,-0.199,0.234,0.033,-0.267,0.164,0.164,0.209,0.172,0.136,0.122,-0.028,-0.060,-0.058
'0:00.282',-0.141,-0.333,-0.192,0.236,0.025,-0.262,0.164,0.167,0.211,0.172,0.139,0.124,-0.029,-0.064,-0.057
'0:00.283',-0.143,-0.334,-0.190,0.238,0.024,-0.262,0.163,0.166,0.210,0.172,0.140,0.123,-0.029,-0.060,-0.056
'0:00.284',-0.151,-0.338,-0.186,0.244,0.018,-0.263,0.163,0.164,0.209,0.172,0.142,0.124,-0.030,-0.059,-0.054
'0:00.285',-0.157,-0.339,-0.181,0.248,0.013,-0.261,0.165,0.168,0.212,0.174,0.144,0.127,-0.030,-0.062,-0.052
'0:00.286',-0.160,-0.342,-0.182,0.251,0.011,-0.262,0.168,0.170,0.213,0.177,0.146,0.131,-0.028,-0.065,-0.051
'0:00.287',-0.140,-0.338,-0.198,0.238,0.029,-0.268,0.164,0.165,0.210,0.177,0.142,0.127,-0.028,-0.065,-0.053
'0:00.288',-0.126,-0.330,-0.203,0.228,0.039,-0.267,0.165,0.165,0.209,0.175,0.146,0.129,-0.026,-0.074,-0.053
'0:00.289',-0.147,-0.335,-0.188,0.241,0.021,-0.262,0.167,0.165,0.210,0.177,0.150,0.132,-0.026,-0.073,-0.053
'0:00.290',-0.146,-0.337,-0.190,0.241,0.022,-0.264,0.160,0.161,0.207,0.175,0.146,0.127,-0.029,-0.068,-0.057
'0:00.291',-0.152,-0.333,-0.180,0.242,0.015,-0.257,0.159,0.161,0.207,0.174,0.147,0.129,-0.029,-0.064,-0.054
'0:00.292',-0.163,-0.335,-0.172,0.248,0.005,-0.254,0.161,0.162,0.209,0.177,0.149,0.133,-0.029,-0.057,-0.054
'0:00.293',-0.171,-0.339,-0.168,0.255,-0.001,-0.254,0.163,0.165,0.209,0.178,0.151,0.132,-0.030,-0.063,-0.056
'0:00.294',-0.172,-0.334,-0.163,0.253,-0.004,-0.248,0.161,0.165,0.209,0.178,0.151,0.131,-0.030,-0.067,-0.057
'0:00.295',-0.165,-0.328,-0.163,0.246,-0.001,-0.245,0.155,0.162,0.209,0.177,0.150,0.131,-0.029,-0.064,-0.057
'0:00.296',-0.183,-0.329,-0.145,0.256,-0.019,-0.237,0.160,0.164,0.207,0.178,0.155,0.133,-0.030,-0.062,-0.055
'0:00.297',-0.188,-0.331,-0.142,0.260,-0.022,-0.237,0.162,0.163,0.204,0.177,0.153,0.131,-0.033,-0.062,-0.055
'0:00.298',-0.172,-0.329,-0.158,0.250,-0.006,-0.243,0.154,0.157,0.201,0.172,0.147,0.125,-0.032,-0.045,-0.055
'0:00.299',-0.176,-0.327,-0.151,0.252,-0.012,-0.239,0.153,0.156,0.200,0.171,0.147,0.127,-0.029,-0.040,-0.053
'0:00.300',-0.172,-0.330,-0.158,0.251,-0.007,-0.244,0.150,0.155,0.200,0.172,0.147,0.129,-0.030,-0.049,-0.052
'0:00.301',-0.168,-0.333,-0.166,0.250,-0.001,-0.249,0.151,0.156,0.200,0.172,0.148,0.130,-0.029,-0.054,-0.052
'0:00.302',-0.172,-0.333,-0.161,0.253,-0.005,-0.247,0.155,0.156,0.200,0.172,0.149,0.133,-0.030,-0.056,-0.052
'0:00.303',-0.171,-0.332,-0.162,0.251,-0.004,-0.247,0.155,0.156,0.199,0.173,0.148,0.132,-0.032,-0.051,-0.053
'0:00.304',-0.167,-0.336,-0.170,0.252,0.002,-0.253,0.150,0.153,0.197,0.171,0.146,0.130,-0.030,-0.050,-0.053
'0:00.305',-0.160,-0.336,-0.176,0.248,0.009,-0.257,0.149,0.153,0.197,0.172,0.146,0.130,-0.029,-0.054,-0.055
'0:00.306',-0.161,-0.330,-0.170,0.245,0.004,-0.249,0.154,0.156,0.202,0.177,0.151,0.134,-0.029,-0.055,-0.055
'0:00.307',-0.168,-0.337,-0.169,0.253,0.001,-0.253,0.152,0.154,0.199,0.175,0.151,0.135,-0.027,-0.049,-0.054
'0:00.308',-0.191,-0.346,-0.155,0.269,-0.018,-0.251,0.156,0.159,0.203,0.180,0.154,0.137,-0.028,-0.052,-0.054
'0:00.309',-0.184,-0.342,-0.157,0.263,-0.014,-0.249,0.158,0.157,0.202,0.179,0.154,0.138,-0.028,-0.050,-0.053
'0:00.310',-0.162,-0.331,-0.169,0.246,0.004,-0.250,0.155,0.155,0.197,0.176,0.152,0.136,-0.026,-0.048,-0.053
'0:00.311',-0.177,-0.328,-0.150,0.252,-0.013,-0.239,0.157,0.160,0.206,0.182,0.158,0.141,-0.025,-0.051,-0.052
'0:00.312',-0.200,-0.340,-0.141,0.270,-0.029,-0.240,0.155,0.157,0.206,0.181,0.158,0.141,-0.025,-0.046,-0.053
'0:00.313',-0.197,-0.344,-0.148,0.271,-0.024,-0.246,0.151,0.155,0.202,0.178,0.155,0.139,-0.025,-0.044,-0.054
'0:00.314',-0.186,-0.338,-0.151,0.262,-0.018,-0.244,0.149,0.155,0.201,0.176,0.154,0.140,-0.024,-0.048,-0.054
'0:00.315',-0.188,-0.337,-0.149,0.263,-0.019,-0.243,0.146,0.152,0.198,0.174,0.151,0.137,-0.025,-0.048,-0.056
'0:00.316',-0.184,-0.333,-0.149,0.259,-0.018,-0.241,0.141,0.148,0.195,0.172,0.149,0.135,-0.025,-0.038,-0.057
'0:00.317',-0.181,-0.331,-0.149,0.256,-0.015,-0.240,0.140,0.148,0.195,0.172,0.151,0.134,-0.026,-0.039,-0.056
'0:00.318',-0.184,-0.329,-0.144,0.257,-0.020,-0.236,0.141,0.149,0.196,0.173,0.152,0.138,-0.025,-0.042,-0.057
'0:00.319',-0.203,-0.327,-0.124,0.265,-0.039,-0.226,0.148,0.153,0.202,0.178,0.155,0.143,-0.024,-0.040,-0.059
'0:00.320',-0.194,-0.323,-0.130,0.258,-0.032,-0.227,0.148,0.154,0.203,0.179,0.157,0.144,-0.026,-0.037,-0.056
'0:00.321',-0.172,-0.318,-0.146,0.245,-0.013,-0.232,0.143,0.152,0.200,0.176,0.152,0.143,-0.025,-0.038,-0.057
'0:00.322',-0.190,-0.326,-0.137,0.258,-0.026,-0.232,0.143,0.152,0.200,0.175,0.151,0.144,-0.024,-0.040,-0.057
'0:00.323',-0.191,-0.334,-0.143,0.262,-0.024,-0.238,0.136,0.145,0.195,0.171,0.149,0.139,-0.025,-0.043,-0.057
'0:00.324',-0.170,-0.330,-0.161,0.249,-0.004,-0.245,0.136,0.142,0.192,0.169,0.148,0.138,-0.022,-0.048,-0.057
'0:00.325',-0.164,-0.328,-0.164,0.246,0.000,-0.246,0.138,0.146,0.194,0.171,0.150,0.141,-0.021,-0.045,-0.056
'0:00.326',-0.168,-0.334,-0.166,0.251,-0.001,-0.250,0.135,0.145,0.193,0.172,0.151,0.139,-0.021,-0.041,-0.059
'0:00.327',-0.169,-0.334,-0.165,0.252,-0.002,-0.250,0.141,0.147,0.195,0.174,0.153,0.139,-0.021,-0.044,-0.060
'0:00.328',-0.178,-0.335,-0.157,0.257,-0.011,-0.246,0.141,0.145,0.196,0.176,0.153,0.139,-0.024,-0.049,-0.057
'0:00.329',-0.172,-0.332,-0.160,0.252,-0.006,-0.245,0.140,0.147,0.200,0.178,0.153,0.140,-0.024,-0.047,-0.056
'0:00.330',-0.174,-0.325,-0.151,0.249,-0.011,-0.238,0.142,0.149,0.200,0.179,0.152,0.141,-0.021,-0.043,-0.057
'0:00.331',-0.200,-0.332,-0.132,0.266,-0.034,-0.232,0.140,0.148,0.199,0.178,0.151,0.141,-0.021,-0.032,-0.057
'0:00.332',-0.204,-0.337,-0.133,0.271,-0.035,-0.235,0.139,0.144,0.196,0.178,0.149,0.141,-0.023,-0.029,-0.058
'0:00.333',-0.183,-0.318,-0.135,0.250,-0.024,-0.226,0.143,0.147,0.198,0.180,0.154,0.148,-0.021,-0.030,-0.058
'0:00.334',-0.165,-0.301,-0.136,0.233,-0.015,-0.219,0.141,0.148,0.203,0.183,0.160,0.150,-0.019,-0.027,-0.056
'0:00.335',-0.181,-0.319,-0.137,0.250,-0.022,-0.228,0.132,0.138,0.192,0.175,0.153,0.141,-0.021,-0.025,-0.059
'0:00.336',-0.171,-0.302,-0.131,0.237,-0.019,-0.217,0.137,0.144,0.197,0.178,0.158,0.146,-0.021,-0.023,-0.061
'0:00.337',-0.170,-0.294,-0.125,0.233,-0.022,-0.210,0.139,0.147,0.202,0.185,0.163,0.150,-0.021,-0.028,-0.059
'0:00.338',-0.200,-0.320,-0.120,0.260,-0.039,-0.221,0.133,0.139,0.194,0.175,0.155,0.144,-0.021,-0.031,-0.059
'0:00.339',-0.194,-0.307,-0.114,0.251,-0.040,-0.210,0.137,0.144,0.197,0.178,0.161,0.148,-0.019,-0.030,-0.060
'0:00.340',-0.186,-0.306,-0.119,0.246,-0.034,-0.213,0.135,0.143,0.195,0.178,0.160,0.150,-0.019,-0.032,-0.059
'0:00.341',-0.182,-0.313,-0.131,0.248,-0.026,-0.222,0.133,0.140,0.190,0.172,0.152,0.145,-0.021,-0.030,-0.059
'0:00.342',-0.178,-0.306,-0.128,0.242,-0.025,-0.217,0.133,0.141,0.192,0.174,0.157,0.147,-0.021,-0.032,-0.059
'0:00.343',-0.174,-0.305,-0.131,0.239,-0.021,-0.218,0.130,0.139,0.191,0.173,0.157,0.148,-0.017,-0.031,-0.059
'0:00.344',-0.173,-0.305,-0.133,0.239,-0.020,-0.219,0.128,0.137,0.190,0.174,0.158,0.149,-0.017,-0.026,-0.061
'0:00.345',-0.176,-0.305,-0.129,0.241,-0.024,-0.217,0.132,0.140,0.194,0.178,0.163,0.153,-0.018,-0.032,-0.063
'0:00.346',-0.176,-0.304,-0.129,0.240,-0.024,-0.216,0.132,0.139,0.196,0.181,0.166,0.153,-0.018,-0.029,-0.063
'0:00.347',-0.175,-0.310,-0.136,0.243,-0.019,-0.224,0.128,0.133,0.192,0.178,0.164,0.146,-0.020,-0.030,-0.065
'0:00.348',-0.179,-0.311,-0.133,0.245,-0.023,-0.222,0.128,0.134,0.191,0.178,0.165,0.146,-0.021,-0.030,-0.063
'0:00.349',-0.174,-0.301,-0.128,0.238,-0.024,-0.214,0.129,0.135,0.195,0.181,0.168,0.156,-0.018,-0.020,-0.062
'0:00.350',-0.178,-0.304,-0.126,0.241,-0.026,-0.215,0.126,0.134,0.193,0.180,0.167,0.159,-0.015,-0.017,-0.063
'0:00.351',-0.188,-0.306,-0.118,0.247,-0.035,-0.212,0.123,0.129,0.191,0.177,0.166,0.155,-0.015,-0.020,-0.064
'0:00.352',-0.186,-0.300,-0.115,0.243,-0.035,-0.208,0.119,0.130,0.193,0.180,0.170,0.157,-0.014,-0.022,-0.066
'0:00.353',-0.194,-0.303,-0.110,0.248,-0.042,-0.206,0.121,0.131,0.191,0.181,0.170,0.157,-0.018,-0.015,-0.065
'0:00.354',-0.194,-0.299,-0.105,0.246,-0.044,-0.202,0.128,0.130,0.188,0.181,0.170,0.155,-0.022,-0.015,-0.066
'0:00.355',-0.195,-0.293,-0.098,0.244,-0.048,-0.196,0.125,0.127,0.188,0.182,0.172,0.157,-0.021,-0.006,-0.065
'0:00.356',-0.200,-0.296,-0.097,0.248,-0.051,-0.197,0.122,0.121,0.183,0.178,0.168,0.157,-0.016,-0.003,-0.064
'0:00.357',-0.193,-0.287,-0.095,0.239,-0.049,-0.191,0.122,0.121,0.182,0.179,0.170,0.158,-0.013,-0.006,-0.064
'0:00.358',-0.195,-0.285,-0.090,0.240,-0.051,-0.188,0.123,0.123,0.186,0.182,0.171,0.159,-0.018,0.002,-0.064
'0:00.359',-0.196,-0.285,-0.090,0.240,-0.052,-0.188,0.122,0.124,0.184,0.181,0.169,0.158,-0.017,-0.004,-0.064
'0:00.360',-0.192,-0.281,-0.089,0.236,-0.051,-0.185,0.122,0.121,0.182,0.182,0.169,0.157,-0.017,-0.004,-0.063
'0:00.361',-0.200,-0.293,-0.094,0.246,-0.052,-0.194,0.118,0.116,0.179,0.178,0.165,0.153,-0.015,-0.002,-0.065
'0:00.362',-0.195,-0.288,-0.093,0.241,-0.051,-0.191,0.117,0.117,0.177,0.177,0.165,0.152,-0.015,0.002,-0.065
'0:00.363',-0.180,-0.274,-0.093,0.227,-0.043,-0.184,0.120,0.117,0.177,0.179,0.166,0.156,-0.017,0.005,-0.066
'0:00.364',-0.181,-0.279,-0.097,0.230,-0.042,-0.188,0.120,0.115,0.175,0.179,0.167,0.157,-0.017,-0.001,-0.066
'0:00.365',-0.181,-0.283,-0.102,0.233,-0.039,-0.193,0.119,0.114,0.176,0.178,0.167,0.155,-0.015,-0.005,-0.067
'0:00.366',-0.182,-0.284,-0.102,0.234,-0.041,-0.193,0.117,0.111,0.175,0.179,0.168,0.155,-0.014,-0.007,-0.069
'0:00.367',-0.181,-0.285,-0.103,0.233,-0.039,-0.194,0.114,0.107,0.171,0.178,0.167,0.155,-0.015,-0.009,-0.070
'0:00.368',-0.181,-0.285,-0.104,0.234,-0.038,-0.195,0.111,0.103,0.168,0.175,0.167,0.153,-0.015,-0.009,-0.069
'0:00.369',-0.181,-0.282,-0.101,0.232,-0.040,-0.192,0.111,0.104,0.170,0.178,0.169,0.158,-0.013,-0.002,-0.070
'0:00.370',-0.178,-0.273,-0.095,0.226,-0.042,-0.184,0.112,0.105,0.174,0.182,0.171,0.160,-0.011,0.009,-0.070
'0:00.371',-0.188,-0.269,-0.082,0.228,-0.052,-0.175,0.110,0.103,0.171,0.181,0.170,0.160,-0.011,0.019,-0.068
'0:00.372',-0.191,-0.270,-0.079,0.230,-0.055,-0.174,0.110,0.102,0.168,0.180,0.172,0.164,-0.009,0.024,-0.070
'0:00.373',-0.192,-0.267,-0.074,0.230,-0.059,-0.171,0.109,0.099,0.168,0.180,0.174,0.164,-0.011,0.015,-0.072
'0:00.374',-0.203,-0.263,-0.060,0.233,-0.071,-0.162,0.110,0.100,0.169,0.181,0.175,0.166,-0.015,0.012,-0.071
'0:00.375',-0.199,-0.262,-0.062,0.230,-0.068,-0.163,0.107,0.097,0.165,0.178,0.173,0.163,-0.013,0.020,-0.071
'0:00.376',-0.198,-0.264,-0.066,0.231,-0.066,-0.165,0.103,0.089,0.161,0.176,0.170,0.158,-0.015,0.021,-0.071
'0:00.377',-0.201,-0.250,-0.050,0.226,-0.075,-0.150,0.110,0.097,0.168,0.182,0.180,0.166,-0.016,0.024,-0.072
'0:00.378',-0.198,-0.245,-0.048,0.222,-0.075,-0.147,0.110,0.099,0.168,0.183,0.183,0.165,-0.018,0.018,-0.073
'0:00.379',-0.228,-0.263,-0.035,0.245,-0.096,-0.149,0.105,0.095,0.165,0.183,0.181,0.163,-0.020,0.011,-0.072
'0:00.380',-0.230,-0.271,-0.042,0.250,-0.094,-0.157,0.104,0.092,0.162,0.181,0.179,0.161,-0.019,0.025,-0.074
'0:00.381',-0.229,-0.274,-0.045,0.252,-0.091,-0.160,0.100,0.091,0.161,0.180,0.176,0.157,-0.022,0.029,-0.074
'0:00.382',-0.217,-0.279,-0.061,0.248,-0.078,-0.170,0.093,0.083,0.153,0.174,0.171,0.151,-0.022,0.025,-0.074
'0:00.383',-0.183,-0.273,-0.090,0.228,-0.046,-0.181,0.084,0.074,0.143,0.167,0.164,0.148,-0.019,0.027,-0.075
'0:00.384',-0.191,-0.270,-0.079,0.230,-0.056,-0.174,0.091,0.084,0.151,0.173,0.172,0.159,-0.018,0.024,-0.077
'0:00.385',-0.185,-0.271,-0.085,0.228,-0.050,-0.178,0.093,0.088,0.158,0.178,0.175,0.162,-0.017,0.020,-0.081
'0:00.386',-0.183,-0.272,-0.088,0.227,-0.047,-0.180,0.090,0.086,0.156,0.178,0.175,0.159,-0.018,0.019,-0.081
'0:00.387',-0.174,-0.268,-0.093,0.221,-0.041,-0.180,0.091,0.080,0.149,0.177,0.178,0.156,-0.018,0.019,-0.081
'0:00.388',-0.184,-0.263,-0.079,0.224,-0.053,-0.171,0.097,0.082,0.149,0.178,0.183,0.166,-0.018,0.020,-0.079
'0:00.389',-0.192,-0.251,-0.059,0.221,-0.066,-0.155,0.107,0.095,0.161,0.188,0.194,0.179,-0.018,0.022,-0.081
'0:00.390',-0.181,-0.239,-0.059,0.210,-0.061,-0.149,0.104,0.096,0.166,0.194,0.198,0.181,-0.017,0.028,-0.082
'0:00.391',-0.196,-0.249,-0.054,0.223,-0.070,-0.152,0.097,0.086,0.158,0.186,0.190,0.175,-0.017,0.028,-0.083
'0:00.392',-0.194,-0.263,-0.069,0.228,-0.062,-0.166,0.090,0.076,0.146,0.176,0.181,0.168,-0.015,0.025,-0.084
'0:00.393',-0.197,-0.270,-0.073,0.233,-0.061,-0.172,0.085,0.069,0.140,0.168,0.175,0.164,-0.015,0.033,-0.084
'0:00.394',-0.193,-0.267,-0.073,0.230,-0.059,-0.170,0.084,0.070,0.140,0.168,0.176,0.162,-0.018,0.034,-0.086
'0:00.395',-0.192,-0.253,-0.061,0.222,-0.065,-0.157,0.086,0.075,0.146,0.175,0.183,0.169,-0.017,0.037,-0.083
'0:00.396',-0.203,-0.253,-0.049,0.228,-0.077,-0.151,0.088,0.076,0.147,0.178,0.184,0.172,-0.017,0.035,-0.081
'0:00.397',-0.208,-0.257,-0.049,0.233,-0.079,-0.153,0.086,0.073,0.146,0.179,0.182,0.172,-0.018,0.032,-0.081
'0:00.398',-0.194,-0.244,-0.051,0.219,-0.071,-0.147,0.088,0.075,0.148,0.181,0.186,0.176,-0.014,0.032,-0.080
'0:00.399',-0.196,-0.244,-0.048,0.220,-0.073,-0.146,0.090,0.073,0.145,0.181,0.188,0.176,-0.016,0.029,-0.078
'0:00.400',-0.206,-0.255,-0.049,0.231,-0.078,-0.152,0.085,0.067,0.143,0.179,0.183,0.172,-0.018,0.035,-0.081
'0:00.401',-0.188,-0.239,-0.051,0.214,-0.068,-0.146,0.092,0.072,0.148,0.185,0.191,0.178,-0.015,0.033,-0.084
'0:00.402',-0.185,-0.230,-0.045,0.207,-0.070,-0.138,0.091,0.074,0.148,0.186,0.194,0.180,-0.015,0.035,-0.081
'0:00.403',-0.217,-0.256,-0.038,0.236,-0.089,-0.147,0.082,0.066,0.140,0.178,0.184,0.171,-0.015,0.030,-0.081
'0:00.404',-0.234,-0.267,-0.033,0.251,-0.101,-0.150,0.084,0.067,0.139,0.177,0.185,0.172,-0.015,0.029,-0.081
'0:00.405',-0.175,-0.244,-0.070,0.209,-0.052,-0.157,0.080,0.067,0.139,0.176,0.183,0.170,-0.013,0.035,-0.082
'0:00.406',-0.151,-0.234,-0.083,0.193,-0.034,-0.159,0.077,0.064,0.136,0.174,0.182,0.169,-0.013,0.038,-0.081
'0:00.407',-0.180,-0.243,-0.063,0.212,-0.059,-0.153,0.081,0.062,0.133,0.172,0.183,0.171,-0.013,0.036,-0.080
'0:00.408',-0.184,-0.247,-0.063,0.215,-0.060,-0.155,0.083,0.061,0.132,0.173,0.185,0.171,-0.015,0.037,-0.079
'0:00.409',-0.188,-0.245,-0.058,0.216,-0.065,-0.151,0.084,0.064,0.135,0.177,0.190,0.177,-0.014,0.037,-0.081
'0:00.410',-0.185,-0.237,-0.052,0.211,-0.067,-0.144,0.082,0.066,0.138,0.180,0.192,0.178,-0.012,0.037,-0.083
'0:00.411',-0.183,-0.234,-0.051,0.209,-0.066,-0.142,0.080,0.062,0.135,0.178,0.192,0.179,-0.011,0.045,-0.080
'0:00.412',-0.186,-0.237,-0.051,0.211,-0.068,-0.144,0.082,0.062,0.135,0.177,0.193,0.179,-0.011,0.041,-0.081
'0:00.413',-0.190,-0.236,-0.046,0.213,-0.071,-0.141,0.085,0.063,0.137,0.182,0.198,0.176,-0.013,0.045,-0.083
'0:00.414',-0.195,-0.234,-0.040,0.214,-0.077,-0.137,0.083,0.059,0.135,0.182,0.198,0.180,-0.012,0.060,-0.083
'0:00.415',-0.194,-0.229,-0.035,0.211,-0.079,-0.132,0.082,0.058,0.134,0.180,0.195,0.181,-0.011,0.055,-0.084
'0:00.416',-0.190,-0.225,-0.035,0.207,-0.077,-0.130,0.082,0.057,0.130,0.179,0.196,0.179,-0.014,0.051,-0.086
'0:00.417',-0.189,-0.220,-0.030,0.204,-0.079,-0.126,0.087,0.059,0.133,0.183,0.201,0.181,-0.014,0.053,-0.085
'0:00.418',-0.188,-0.217,-0.029,0.202,-0.079,-0.123,0.086,0.061,0.138,0.185,0.204,0.181,-0.013,0.056,-0.086
'0:00.419',-0.193,-0.222,-0.029,0.207,-0.082,-0.126,0.085,0.059,0.136,0.184,0.204,0.182,-0.013,0.045,-0.086
'0:00.420',-0.180,-0.213,-0.034,0.197,-0.073,-0.124,0.089,0.061,0.137,0.187,0.207,0.186,-0.014,0.041,-0.086
'0:00.421',-0.173,-0.210,-0.037,0.192,-0.068,-0.124,0.088,0.063,0.138,0.189,0.210,0.183,-0.015,0.041,-0.088
'0:00.422',-0.192,-0.223,-0.030,0.207,-0.081,-0.127,0.082,0.055,0.132,0.184,0.204,0.183,-0.013,0.048,-0.086
'0:00.423',-0.190,-0.222,-0.032,0.205,-0.079,-0.127,0.081,0.053,0.132,0.182,0.202,0.187,-0.010,0.053,-0.086
'0:00.424',-0.173,-0.212,-0.039,0.193,-0.067,-0.126,0.084,0.056,0.134,0.186,0.207,0.190,-0.011,0.050,-0.086
'0:00.425',-0.174,-0.217,-0.043,0.196,-0.065,-0.131,0.082,0.054,0.132,0.186,0.207,0.189,-0.011,0.044,-0.086
'0:00.426',-0.188,-0.229,-0.042,0.208,-0.073,-0.136,0.082,0.052,0.131,0.183,0.204,0.186,-0.009,0.050,-0.086
'0:00.427',-0.188,-0.226,-0.039,0.206,-0.074,-0.133,0.085,0.054,0.133,0.186,0.205,0.189,-0.010,0.048,-0.086
'0:00.428',-0.193,-0.224,-0.032,0.208,-0.080,-0.129,0.087,0.057,0.136,0.190,0.208,0.192,-0.013,0.035,-0.086
'0:00.429',-0.186,-0.227,-0.040,0.206,-0.073,-0.134,0.082,0.052,0.131,0.188,0.206,0.188,-0.013,0.049,-0.088
'0:00.430',-0.172,-0.221,-0.050,0.196,-0.060,-0.136,0.079,0.049,0.126,0.181,0.201,0.181,-0.015,0.051,-0.090
'0:00.431',-0.176,-0.214,-0.038,0.195,-0.069,-0.127,0.080,0.049,0.128,0.182,0.202,0.184,-0.013,0.048,-0.088
'0:00.432',-0.177,-0.204,-0.028,0.191,-0.074,-0.116,0.086,0.054,0.135,0.192,0.210,0.195,-0.009,0.052,-0.091
'0:00.433',-0.172,-0.195,-0.023,0.183,-0.074,-0.109,0.090,0.056,0.137,0.194,0.216,0.198,-0.013,0.053,-0.091
'0:00.434',-0.176,-0.198,-0.021,0.187,-0.077,-0.110,0.081,0.048,0.132,0.188,0.211,0.192,-0.013,0.061,-0.087
'0:00.435',-0.181,-0.199,-0.018,0.191,-0.082,-0.108,0.078,0.044,0.129,0.186,0.210,0.190,-0.013,0.066,-0.088
'0:00.436',-0.193,-0.200,-0.007,0.196,-0.092,-0.104,0.079,0.044,0.130,0.188,0.212,0.191,-0.013,0.070,-0.088
'0:00.437',-0.202,-0.202,0.000,0.202,-0.101,-0.101,0.078,0.042,0.127,0.186,0.211,0.189,-0.013,0.072,-0.088
'0:00.438',-0.186,-0.189,-0.003,0.187,-0.091,-0.096,0.077,0.043,0.126,0.188,0.213,0.189,-0.015,0.074,-0.092
'0:00.439',-0.195,-0.188,0.006,0.191,-0.100,-0.091,0.081,0.043,0.130,0.192,0.217,0.194,-0.015,0.065,-0.092
'0:00.440',-0.201,-0.202,-0.001,0.202,-0.100,-0.102,0.076,0.038,0.123,0.185,0.211,0.188,-0.015,0.062,-0.092
'0:00.441',-0.175,-0.197,-0.021,0.186,-0.077,-0.109,0.072,0.036,0.119,0.183,0.208,0.184,-0.016,0.068,-0.095
'0:00.442',-0.175,-0.189,-0.013,0.182,-0.081,-0.102,0.076,0.040,0.123,0.188,0.212,0.190,-0.013,0.067,-0.097
'0:00.443',-0.187,-0.194,-0.006,0.190,-0.090,-0.101,0.077,0.040,0.123,0.188,0.212,0.189,-0.013,0.072,-0.099
'0:00.444',-0.183,-0.194,-0.011,0.189,-0.086,-0.102,0.083,0.043,0.127,0.190,0.216,0.192,-0.015,0.073,-0.100
'0:00.445',-0.184,-0.194,-0.010,0.189,-0.087,-0.102,0.083,0.046,0.129,0.192,0.217,0.195,-0.015,0.076,-0.102
'0:00.446',-0.174,-0.188,-0.013,0.180,-0.080,-0.101,0.085,0.046,0.132,0.196,0.218,0.197,-0.015,0.082,-0.104
'0:00.447',-0.163,-0.182,-0.019,0.172,-0.071,-0.102,0.086,0.046,0.132,0.197,0.221,0.197,-0.013,0.083,-0.109
'0:00.448',-0.175,-0.184,-0.009,0.180,-0.083,-0.097,0.088,0.049,0.134,0.200,0.225,0.200,-0.017,0.079,-0.110
'0:00.449',-0.181,-0.179,0.002,0.180,-0.091,-0.089,0.096,0.054,0.139,0.206,0.232,0.205,-0.019,0.088,-0.110
'0:00.450',-0.174,-0.172,0.003,0.173,-0.088,-0.085,0.095,0.052,0.138,0.207,0.233,0.208,-0.017,0.092,-0.113
'0:00.451',-0.174,-0.169,0.005,0.172,-0.089,-0.082,0.090,0.045,0.138,0.206,0.230,0.209,-0.015,0.101,-0.115
'0:00.452',-0.179,-0.167,0.013,0.172,-0.096,-0.077,0.091,0.046,0.142,0.210,0.233,0.211,-0.018,0.117,-0.117
'0:00.453',-0.163,-0.143,0.019,0.153,-0.090,-0.062,0.102,0.054,0.151,0.221,0.245,0.224,-0.018,0.106,-0.117
'0:00.454',-0.184,-0.141,0.043,0.163,-0.113,-0.050,0.108,0.058,0.158,0.227,0.253,0.230,-0.018,0.102,-0.119
'0:00.455',-0.195,-0.158,0.037,0.176,-0.116,-0.060,0.098,0.047,0.145,0.216,0.242,0.219,-0.018,0.118,-0.122
'0:00.456',-0.184,-0.155,0.029,0.170,-0.107,-0.063,0.094,0.040,0.139,0.211,0.236,0.212,-0.019,0.127,-0.126
'0:00.457',-0.202,-0.148,0.053,0.175,-0.127,-0.048,0.094,0.043,0.150,0.221,0.244,0.221,-0.022,0.133,-0.130
'0:00.458',-0.182,-0.141,0.042,0.162,-0.112,-0.050,0.098,0.040,0.147,0.218,0.244,0.222,-0.021,0.138,-0.134
'0:00.459',-0.184,-0.140,0.044,0.162,-0.114,-0.049,0.106,0.038,0.145,0.219,0.246,0.220,-0.024,0.136,-0.136
'0:00.460',-0.190,-0.134,0.056,0.162,-0.122,-0.039,0.112,0.043,0.151,0.225,0.256,0.229,-0.023,0.134,-0.137
'0:00.461',-0.182,-0.131,0.052,0.156,-0.117,-0.040,0.116,0.048,0.155,0.226,0.259,0.227,-0.024,0.139,-0.142
'0:00.462',-0.188,-0.137,0.051,0.163,-0.119,-0.043,0.110,0.043,0.151,0.223,0.254,0.217,-0.029,0.145,-0.144
'0:00.463',-0.184,-0.128,0.056,0.156,-0.120,-0.036,0.113,0.044,0.152,0.226,0.258,0.221,-0.028,0.148,-0.147
'0:00.464',-0.168,-0.119,0.049,0.143,-0.108,-0.035,0.115,0.044,0.152,0.227,0.259,0.225,-0.025,0.147,-0.147
'0:00.465',-0.155,-0.124,0.031,0.140,-0.093,-0.047,0.108,0.033,0.143,0.217,0.248,0.220,-0.026,0.151,-0.146
'0:00.466',-0.155,-0.117,0.038,0.137,-0.097,-0.040,0.115,0.040,0.148,0.221,0.251,0.224,-0.029,0.152,-0.149
'0:00.467',-0.161,-0.114,0.046,0.137,-0.103,-0.034,0.118,0.043,0.153,0.226,0.255,0.227,-0.029,0.152,-0.151
'0:00.468',-0.169,-0.118,0.050,0.143,-0.109,-0.035,0.116,0.039,0.150,0.224,0.254,0.228,-0.029,0.154,-0.152
'0:00.469',-0.175,-0.110,0.066,0.142,-0.120,-0.022,0.119,0.045,0.159,0.233,0.261,0.236,-0.028,0.159,-0.154
'0:00.470',-0.177,-0.098,0.080,0.137,-0.128,-0.009,0.120,0.049,0.166,0.238,0.266,0.238,-0.027,0.166,-0.158
'0:00.471',-0.174,-0.095,0.079,0.135,-0.127,-0.008,0.115,0.044,0.164,0.235,0.265,0.237,-0.026,0.167,-0.157
'0:00.472',-0.186,-0.100,0.086,0.143,-0.136,-0.007,0.113,0.045,0.166,0.239,0.269,0.241,-0.021,0.169,-0.156
'0:00.473',-0.191,-0.095,0.096,0.143,-0.143,0.001,0.108,0.043,0.168,0.243,0.272,0.244,-0.020,0.173,-0.153
'0:00.474',-0.163,-0.087,0.075,0.125,-0.119,-0.006,0.096,0.034,0.161,0.238,0.267,0.237,-0.021,0.175,-0.151
'0:00.475',-0.146,-0.086,0.061,0.116,-0.103,-0.013,0.080,0.026,0.154,0.232,0.261,0.231,-0.020,0.171,-0.150
'0:00.476',-0.153,-0.084,0.069,0.118,-0.111,-0.008,0.069,0.024,0.153,0.234,0.265,0.233,-0.018,0.172,-0.146
'0:00.477',-0.158,-0.081,0.077,0.119,-0.117,-0.002,0.066,0.026,0.157,0.236,0.267,0.236,-0.018,0.179,-0.143
'0:00.478',-0.149,-0.073,0.076,0.111,-0.113,0.002,0.059,0.022,0.154,0.233,0.265,0.237,-0.018,0.176,-0.142
'0:00.479',-0.149,-0.073,0.075,0.112,-0.112,0.001,0.043,0.018,0.150,0.233,0.268,0.237,-0.015,0.177,-0.140
'0:00.480',-0.148,-0.076,0.071,0.112,-0.110,-0.003,0.032,0.013,0.153,0.236,0.271,0.242,-0.012,0.165,-0.136
'0:00.481',-0.139,-0.085,0.054,0.112,-0.096,-0.016,0.022,0.009,0.148,0.232,0.265,0.236,-0.008,0.154,-0.129
'0:00.482',-0.143,-0.097,0.046,0.120,-0.095,-0.026,0.017,0.007,0.140,0.224,0.256,0.227,-0.009,0.152,-0.123
'0:00.483',-0.127,-0.085,0.042,0.106,-0.085,-0.021,0.021,0.015,0.148,0.232,0.263,0.230,-0.006,0.150,-0.121
'0:00.484',-0.136,-0.108,0.028,0.122,-0.082,-0.041,0.011,0.007,0.137,0.220,0.253,0.223,-0.001,0.146,-0.114
'0:00.485',-0.139,-0.129,0.011,0.134,-0.074,-0.059,0.001,-0.004,0.125,0.208,0.241,0.215,0.002,0.138,-0.106
'0:00.486',-0.118,-0.101,0.018,0.110,-0.068,-0.042,0.005,0.009,0.139,0.223,0.259,0.228,0.004,0.140,-0.104
'0:00.487',-0.114,-0.095,0.019,0.104,-0.066,-0.038,0.001,0.006,0.141,0.226,0.262,0.231,0.007,0.138,-0.102
'0:00.488',-0.118,-0.102,0.017,0.110,-0.067,-0.043,-0.007,-0.001,0.140,0.226,0.261,0.231,0.011,0.135,-0.098
'0:00.489',-0.112,-0.101,0.011,0.106,-0.061,-0.045,-0.013,-0.002,0.137,0.226,0.262,0.231,0.015,0.137,-0.093
'0:00.490',-0.105,-0.100,0.006,0.102,-0.055,-0.047,-0.020,-0.006,0.136,0.225,0.259,0.227,0.018,0.141,-0.092
'0:00.491',-0.119,-0.090,0.029,0.104,-0.073,-0.031,-0.013,0.002,0.141,0.231,0.267,0.234,0.019,0.148,-0.094
'0:00.492',-0.092,-0.082,0.011,0.087,-0.051,-0.035,-0.014,0.002,0.141,0.231,0.265,0.237,0.024,0.147,-0.092
'0:00.493',-0.098,-0.080,0.018,0.088,-0.058,-0.032,-0.011,0.005,0.147,0.235,0.269,0.242,0.025,0.140,-0.091
'0:00.494',-0.101,-0.073,0.027,0.087,-0.064,-0.024,-0.006,0.007,0.145,0.234,0.271,0.241,0.018,0.136,-0.090
'0:00.495',-0.089,-0.077,0.013,0.083,-0.051,-0.033,-0.013,-0.004,0.132,0.221,0.261,0.233,0.017,0.142,-0.086
'0:00.496',-0.115,-0.092,0.022,0.103,-0.069,-0.035,-0.014,-0.011,0.121,0.215,0.258,0.230,0.014,0.146,-0.085
'0:00.497',-0.106,-0.086,0.020,0.097,-0.063,-0.033,-0.015,-0.015,0.118,0.214,0.261,0.227,0.009,0.150,-0.084
'0:00.498',-0.101,-0.079,0.022,0.089,-0.061,-0.028,-0.015,-0.018,0.117,0.214,0.264,0.228,0.009,0.151,-0.080
'0:00.499',-0.130,-0.100,0.030,0.115,-0.080,-0.035,-0.025,-0.030,0.104,0.202,0.252,0.225,0.012,0.147,-0.075
'0:00.500',-0.133,-0.102,0.032,0.117,-0.082,-0.035,-0.024,-0.031,0.104,0.203,0.252,0.229,0.011,0.153,-0.073
'0:00.501',-0.126,-0.091,0.034,0.108,-0.079,-0.029,-0.019,-0.026,0.110,0.211,0.262,0.234,0.010,0.158,-0.072
'0:00.502',-0.128,-0.094,0.035,0.111,-0.081,-0.030,-0.026,-0.032,0.105,0.208,0.262,0.233,0.011,0.153,-0.069
'0:00.503',-0.126,-0.103,0.023,0.114,-0.074,-0.040,-0.029,-0.038,0.098,0.202,0.254,0.227,0.011,0.154,-0.070
'0:00.504',-0.128,-0.114,0.015,0.121,-0.071,-0.050,-0.034,-0.040,0.098,0.199,0.249,0.221,0.011,0.154,-0.073
'0:00.505',-0.130,-0.111,0.018,0.120,-0.074,-0.046,-0.026,-0.040,0.098,0.201,0.251,0.226,0.012,0.157,-0.072
'0:00.506',-0.138,-0.114,0.023,0.126,-0.080,-0.045,-0.021,-0.043,0.089,0.196,0.246,0.227,0.012,0.168,-0.073
'0:00.507',-0.131,-0.103,0.028,0.117,-0.079,-0.038,-0.019,-0.041,0.093,0.200,0.253,0.228,0.007,0.169,-0.077
'0:00.508',-0.129,-0.096,0.033,0.112,-0.080,-0.032,-0.016,-0.037,0.100,0.205,0.258,0.231,0.003,0.167,-0.080
'0:00.509',-0.126,-0.089,0.036,0.107,-0.081,-0.026,-0.018,-0.036,0.102,0.207,0.260,0.234,0.004,0.165,-0.082
'0:00.510',-0.137,-0.085,0.052,0.111,-0.094,-0.017,-0.014,-0.035,0.102,0.209,0.265,0.238,0.006,0.167,-0.082
'0:00.511',-0.163,-0.095,0.069,0.129,-0.116,-0.013,-0.011,-0.033,0.102,0.211,0.265,0.240,0.009,0.172,-0.080
'0:00.512',-0.157,-0.094,0.063,0.126,-0.110,-0.015,-0.011,-0.034,0.103,0.211,0.265,0.241,0.012,0.173,-0.076
'0:00.513',-0.142,-0.097,0.046,0.119,-0.094,-0.025,-0.018,-0.036,0.099,0.206,0.260,0.236,0.015,0.167,-0.070
'0:00.514',-0.115,-0.098,0.018,0.106,-0.067,-0.040,-0.026,-0.041,0.093,0.201,0.252,0.228,0.017,0.161,-0.072
'0:00.515',-0.101,-0.095,0.006,0.098,-0.052,-0.044,-0.025,-0.038,0.093,0.200,0.252,0.227,0.017,0.157,-0.076
'0:00.516',-0.111,-0.098,0.013,0.104,-0.062,-0.042,-0.022,-0.032,0.097,0.202,0.251,0.226,0.017,0.148,-0.077
'0:00.517',-0.116,-0.110,0.006,0.113,-0.061,-0.052,-0.021,-0.035,0.091,0.195,0.244,0.219,0.017,0.142,-0.076
'0:00.518',-0.107,-0.107,0.000,0.107,-0.053,-0.054,-0.022,-0.036,0.090,0.195,0.246,0.222,0.018,0.144,-0.074
'0:00.519',-0.111,-0.106,0.004,0.108,-0.057,-0.051,-0.025,-0.039,0.088,0.191,0.244,0.223,0.019,0.145,-0.070
'0:00.520',-0.111,-0.107,0.004,0.109,-0.057,-0.052,-0.017,-0.035,0.091,0.192,0.245,0.224,0.018,0.140,-0.070
'0:00.521',-0.107,-0.104,0.004,0.106,-0.055,-0.051,-0.010,-0.029,0.094,0.198,0.251,0.228,0.013,0.142,-0.070
'0:00.522',-0.118,-0.115,0.003,0.117,-0.060,-0.057,-0.015,-0.035,0.088,0.193,0.245,0.223,0.012,0.151,-0.075
'0:00.523',-0.118,-0.117,0.001,0.118,-0.059,-0.059,-0.010,-0.033,0.088,0.193,0.244,0.223,0.015,0.147,-0.077
'0:00.524',-0.118,-0.116,0.003,0.117,-0.061,-0.057,-0.002,-0.030,0.093,0.196,0.248,0.225,0.013,0.149,-0.077
'0:00.525',-0.129,-0.124,0.004,0.127,-0.067,-0.060,-0.002,-0.028,0.095,0.198,0.247,0.223,0.013,0.146,-0.080
'0:00.526',-0.140,-0.132,0.008,0.136,-0.074,-0.062,0.003,-0.024,0.092,0.198,0.245,0.222,0.011,0.141,-0.080
'0:00.527',-0.145,-0.136,0.009,0.141,-0.076,-0.064,0.011,-0.021,0.098,0.199,0.245,0.221,0.008,0.142,-0.080
'0:00.528',-0.147,-0.142,0.005,0.144,-0.075,-0.069,0.020,-0.015,0.101,0.200,0.243,0.221,0.008,0.130,-0.079
'0:00.529',-0.133,-0.132,0.002,0.133,-0.068,-0.065,0.029,-0.006,0.104,0.203,0.243,0.225,0.011,0.135,-0.080
'0:00.530',-0.137,-0.134,0.004,0.136,-0.070,-0.066,0.022,-0.009,0.101,0.199,0.240,0.221,0.009,0.138,-0.078
'0:00.531',-0.155,-0.149,0.005,0.152,-0.080,-0.072,0.013,-0.018,0.092,0.194,0.234,0.213,0.007,0.126,-0.074
'0:00.532',-0.163,-0.156,0.006,0.160,-0.085,-0.075,0.018,-0.020,0.088,0.190,0.231,0.211,0.003,0.119,-0.073
'0:00.533',-0.170,-0.163,0.007,0.166,-0.088,-0.078,0.024,-0.019,0.084,0.184,0.231,0.208,0.001,0.112,-0.071
'0:00.534',-0.175,-0.166,0.009,0.171,-0.092,-0.079,0.025,-0.021,0.079,0.181,0.228,0.204,0.001,0.111,-0.071
'0:00.535',-0.178,-0.167,0.011,0.172,-0.095,-0.077,0.024,-0.021,0.077,0.178,0.225,0.201,-0.004,0.110,-0.070
'0:00.536',-0.179,-0.172,0.007,0.175,-0.093,-0.083,0.035,-0.013,0.082,0.180,0.225,0.199,-0.005,0.101,-0.076
'0:00.537',-0.183,-0.179,0.004,0.181,-0.093,-0.088,0.042,-0.009,0.083,0.180,0.224,0.196,-0.004,0.097,-0.082
'0:00.538',-0.180,-0.179,0.001,0.180,-0.090,-0.089,0.037,-0.009,0.082,0.179,0.221,0.194,-0.004,0.086,-0.081
'0:00.539',-0.182,-0.181,0.001,0.181,-0.090,-0.091,0.038,-0.009,0.082,0.178,0.221,0.194,-0.004,0.085,-0.081
'0:00.540',-0.182,-0.190,-0.007,0.186,-0.087,-0.099,0.038,-0.011,0.079,0.174,0.215,0.192,-0.005,0.087,-0.079
'0:00.541',-0.185,-0.199,-0.015,0.192,-0.085,-0.107,0.036,-0.014,0.073,0.170,0.209,0.188,-0.007,0.074,-0.075
'0:00.542',-0.182,-0.197,-0.015,0.190,-0.084,-0.106,0.035,-0.015,0.070,0.166,0.206,0.184,-0.007,0.079,-0.073
'0:00.543',-0.180,-0.201,-0.021,0.191,-0.080,-0.111,0.037,-0.014,0.070,0.164,0.203,0.184,-0.008,0.071,-0.076
'0:00.544',-0.181,-0.209,-0.028,0.196,-0.076,-0.119,0.040,-0.013,0.068,0.164,0.202,0.183,-0.011,0.066,-0.080
'0:00.545',-0.177,-0.213,-0.035,0.195,-0.070,-0.124,0.041,-0.014,0.064,0.159,0.199,0.179,-0.012,0.068,-0.080
'0:00.546',-0.182,-0.217,-0.036,0.200,-0.072,-0.127,0.044,-0.011,0.064,0.159,0.195,0.174,-0.014,0.066,-0.080
'0:00.547',-0.188,-0.222,-0.033,0.204,-0.077,-0.128,0.049,-0.006,0.066,0.162,0.194,0.172,-0.018,0.059,-0.082
'0:00.548',-0.185,-0.232,-0.046,0.208,-0.070,-0.139,0.046,-0.011,0.060,0.153,0.191,0.167,-0.018,0.042,-0.081
'0:00.549',-0.190,-0.236,-0.045,0.213,-0.072,-0.141,0.048,-0.007,0.062,0.155,0.192,0.167,-0.019,0.035,-0.084
'0:00.550',-0.214,-0.233,-0.018,0.224,-0.098,-0.126,0.058,0.001,0.068,0.163,0.199,0.172,-0.021,0.035,-0.085
'0:00.551',-0.210,-0.230,-0.019,0.220,-0.095,-0.125,0.057,-0.002,0.065,0.158,0.201,0.173,-0.018,0.049,-0.082
'0:00.552',-0.189,-0.223,-0.034,0.205,-0.077,-0.128,0.049,-0.001,0.066,0.159,0.200,0.173,-0.018,0.056,-0.080
'0:00.553',-0.194,-0.221,-0.027,0.207,-0.083,-0.124,0.053,-0.002,0.066,0.161,0.202,0.170,-0.019,0.053,-0.079
'0:00.554',-0.209,-0.234,-0.025,0.222,-0.092,-0.130,0.052,-0.009,0.059,0.153,0.194,0.166,-0.021,0.053,-0.079
'0:00.555',-0.211,-0.236,-0.025,0.224,-0.092,-0.132,0.043,-0.013,0.056,0.149,0.189,0.163,-0.021,0.051,-0.080
'0:00.556',-0.218,-0.232,-0.014,0.225,-0.102,-0.123,0.049,-0.009,0.059,0.152,0.191,0.166,-0.021,0.046,-0.080
'0:00.557',-0.210,-0.230,-0.019,0.220,-0.096,-0.124,0.048,-0.011,0.053,0.146,0.185,0.163,-0.021,0.043,-0.080
'0:00.558',-0.215,-0.226,-0.011,0.221,-0.102,-0.118,0.050,-0.005,0.057,0.150,0.186,0.162,-0.023,0.042,-0.081
'0:00.559',-0.241,-0.231,0.011,0.235,-0.126,-0.111,0.057,-0.003,0.067,0.158,0.194,0.168,-0.025,0.041,-0.083
'0:00.560',-0.226,-0.230,-0.004,0.228,-0.111,-0.117,0.051,-0.009,0.062,0.154,0.194,0.165,-0.022,0.048,-0.083
'0:00.561',-0.226,-0.233,-0.008,0.230,-0.108,-0.121,0.051,-0.007,0.061,0.154,0.195,0.168,-0.021,0.045,-0.080
'0:00.562',-0.218,-0.228,-0.009,0.223,-0.104,-0.118,0.052,-0.007,0.060,0.154,0.196,0.170,-0.020,0.045,-0.079
'0:00.563',-0.206,-0.220,-0.013,0.213,-0.097,-0.117,0.053,-0.005,0.062,0.156,0.198,0.171,-0.021,0.051,-0.081
'0:00.564',-0.193,-0.219,-0.026,0.206,-0.083,-0.123,0.052,-0.008,0.061,0.153,0.195,0.168,-0.022,0.050,-0.081
'0:00.565',-0.189,-0.222,-0.033,0.205,-0.078,-0.127,0.048,-0.009,0.059,0.149,0.191,0.167,-0.018,0.042,-0.079
'0:00.566',-0.209,-0.238,-0.029,0.224,-0.090,-0.134,0.045,-0.011,0.059,0.148,0.190,0.164,-0.020,0.040,-0.077
'0:00.567',-0.196,-0.237,-0.042,0.216,-0.077,-0.139,0.043,-0.017,0.051,0.142,0.183,0.154,-0.024,0.044,-0.078
'0:00.568',-0.194,-0.227,-0.033,0.210,-0.080,-0.130,0.049,-0.009,0.059,0.149,0.192,0.157,-0.025,0.043,-0.077
'0:00.569',-0.188,-0.216,-0.029,0.202,-0.079,-0.122,0.055,-0.005,0.066,0.158,0.197,0.169,-0.022,0.048,-0.078
'0:00.570',-0.172,-0.215,-0.043,0.194,-0.065,-0.129,0.045,-0.015,0.053,0.145,0.184,0.166,-0.019,0.042,-0.076
'0:00.571',-0.188,-0.226,-0.037,0.206,-0.074,-0.132,0.042,-0.018,0.051,0.143,0.184,0.159,-0.022,0.039,-0.078
'0:00.572',-0.203,-0.231,-0.028,0.217,-0.087,-0.130,0.047,-0.015,0.054,0.147,0.184,0.162,-0.021,0.046,-0.079
'0:00.573',-0.214,-0.235,-0.021,0.225,-0.096,-0.129,0.043,-0.018,0.051,0.143,0.183,0.161,-0.018,0.051,-0.077
'0:00.574',-0.220,-0.238,-0.018,0.229,-0.101,-0.129,0.038,-0.019,0.051,0.143,0.182,0.159,-0.022,0.048,-0.081
'0:00.575',-0.224,-0.238,-0.015,0.231,-0.104,-0.127,0.040,-0.018,0.051,0.143,0.181,0.157,-0.024,0.051,-0.082
'0:00.576',-0.220,-0.232,-0.011,0.226,-0.104,-0.121,0.037,-0.018,0.051,0.143,0.182,0.158,-0.022,0.056,-0.080
'0:00.577',-0.206,-0.223,-0.016,0.214,-0.095,-0.119,0.037,-0.018,0.054,0.145,0.185,0.162,-0.021,0.055,-0.080
'0:00.578',-0.198,-0.212,-0.015,0.205,-0.091,-0.114,0.044,-0.011,0.058,0.148,0.189,0.166,-0.021,0.059,-0.082
'0:00.579',-0.204,-0.218,-0.013,0.211,-0.095,-0.116,0.042,-0.016,0.053,0.144,0.186,0.165,-0.021,0.050,-0.080
'0:00.580',-0.214,-0.228,-0.014,0.221,-0.100,-0.121,0.038,-0.018,0.052,0.143,0.185,0.164,-0.021,0.047,-0.080
'0:00.581',-0.217,-0.232,-0.015,0.225,-0.102,-0.123,0.042,-0.018,0.050,0.142,0.184,0.164,-0.020,0.051,-0.078
'0:00.582',-0.212,-0.230,-0.018,0.221,-0.097,-0.124,0.043,-0.024,0.047,0.141,0.183,0.161,-0.021,0.049,-0.077
'0:00.583',-0.197,-0.221,-0.025,0.209,-0.086,-0.123,0.044,-0.021,0.053,0.147,0.187,0.162,-0.021,0.043,-0.081
'0:00.584',-0.203,-0.232,-0.029,0.217,-0.087,-0.131,0.040,-0.025,0.049,0.140,0.181,0.162,-0.021,0.043,-0.081
'0:00.585',-0.219,-0.246,-0.028,0.233,-0.096,-0.138,0.037,-0.027,0.046,0.136,0.177,0.156,-0.022,0.042,-0.080
'0:00.586',-0.209,-0.240,-0.030,0.225,-0.089,-0.136,0.043,-0.022,0.051,0.141,0.181,0.158,-0.022,0.043,-0.080
'0:00.587',-0.200,-0.234,-0.035,0.217,-0.082,-0.135,0.041,-0.024,0.050,0.141,0.183,0.160,-0.020,0.044,-0.077
'0:00.588',-0.200,-0.233,-0.034,0.216,-0.083,-0.134,0.044,-0.021,0.052,0.145,0.185,0.161,-0.020,0.042,-0.078
'0:00.589',-0.197,-0.231,-0.034,0.214,-0.082,-0.133,0.046,-0.017,0.055,0.147,0.187,0.165,-0.018,0.044,-0.080
'0:00.590',-0.202,-0.231,-0.029,0.216,-0.086,-0.130,0.043,-0.018,0.053,0.145,0.186,0.165,-0.019,0.045,-0.079
'0:00.591',-0.200,-0.223,-0.022,0.211,-0.088,-0.123,0.044,-0.017,0.054,0.147,0.186,0.165,-0.019,0.044,-0.079
'0:00.592',-0.200,-0.223,-0.023,0.212,-0.088,-0.123,0.046,-0.015,0.056,0.148,0.188,0.165,-0.018,0.041,-0.078
'0:00.593',-0.209,-0.229,-0.020,0.219,-0.094,-0.125,0.044,-0.018,0.053,0.144,0.184,0.162,-0.021,0.043,-0.076
'0:00.594',-0.207,-0.221,-0.013,0.214,-0.097,-0.117,0.044,-0.018,0.054,0.145,0.184,0.165,-0.021,0.053,-0.074
'0:00.595',-0.208,-0.216,-0.008,0.212,-0.100,-0.113,0.048,-0.017,0.054,0.145,0.186,0.165,-0.022,0.058,-0.073
'0:00.596',-0.218,-0.222,-0.004,0.220,-0.106,-0.114,0.051,-0.017,0.053,0.144,0.183,0.160,-0.025,0.052,-0.081
'0:00.597',-0.217,-0.216,0.001,0.216,-0.109,-0.107,0.057,-0.015,0.057,0.148,0.184,0.160,-0.024,0.059,-0.086
'0:00.598',-0.217,-0.209,0.007,0.213,-0.112,-0.101,0.062,-0.012,0.062,0.152,0.187,0.162,-0.028,0.068,-0.093
'0:00.599',-0.229,-0.216,0.012,0.223,-0.120,-0.102,0.071,-0.009,0.062,0.150,0.184,0.157,-0.036,0.060,-0.100
'0:00.600',-0.233,-0.224,0.009,0.229,-0.120,-0.108,0.086,-0.002,0.064,0.149,0.182,0.153,-0.042,0.048,-0.104
'0:00.601',-0.245,-0.237,0.007,0.241,-0.126,-0.115,0.100,0.004,0.065,0.145,0.177,0.144,-0.051,0.040,-0.105
'0:00.602',-0.260,-0.248,0.011,0.254,-0.136,-0.118,0.117,0.011,0.059,0.136,0.170,0.135,-0.060,0.041,-0.103
'0:00.603',-0.265,-0.257,0.008,0.261,-0.136,-0.124,0.135,0.024,0.059,0.129,0.161,0.128,-0.068,0.036,-0.105
'0:00.604',-0.274,-0.275,-0.001,0.275,-0.137,-0.138,0.151,0.037,0.052,0.111,0.142,0.112,-0.082,0.026,-0.105
'0:00.605',-0.282,-0.297,-0.015,0.289,-0.134,-0.156,0.179,0.058,0.045,0.095,0.127,0.098,-0.093,0.009,-0.101
'0:00.606',-0.292,-0.321,-0.029,0.306,-0.132,-0.175,0.205,0.081,0.044,0.083,0.113,0.083,-0.104,-0.018,-0.095
'0:00.607',-0.303,-0.340,-0.037,0.322,-0.133,-0.189,0.227,0.101,0.038,0.065,0.093,0.062,-0.119,-0.041,-0.092
'0:00.608',-0.318,-0.359,-0.041,0.339,-0.139,-0.201,0.250,0.118,0.033,0.051,0.079,0.049,-0.132,-0.056,-0.086
'0:00.609',-0.323,-0.376,-0.052,0.349,-0.135,-0.214,0.279,0.148,0.040,0.045,0.065,0.040,-0.138,-0.070,-0.087
'0:00.610',-0.332,-0.391,-0.059,0.361,-0.137,-0.225,0.307,0.188,0.061,0.046,0.057,0.027,-0.144,-0.083,-0.094
'0:00.611',-0.344,-0.402,-0.058,0.373,-0.142,-0.231,0.336,0.223,0.085,0.052,0.051,0.017,-0.150,-0.097,-0.102
'0:00.612',-0.358,-0.417,-0.059,0.388,-0.149,-0.238,0.362,0.261,0.112,0.064,0.045,0.008,-0.154,-0.115,-0.115
'0:00.613',-0.368,-0.427,-0.059,0.398,-0.154,-0.243,0.386,0.301,0.157,0.088,0.048,0.004,-0.155,-0.124,-0.123
'0:00.614',-0.363,-0.432,-0.069,0.398,-0.146,-0.251,0.409,0.348,0.205,0.112,0.050,-0.002,-0.152,-0.129,-0.133
'0:00.615',-0.362,-0.446,-0.085,0.404,-0.139,-0.266,0.441,0.405,0.254,0.129,0.044,-0.011,-0.154,-0.138,-0.143
'0:00.616',-0.352,-0.461,-0.108,0.406,-0.121,-0.285,0.474,0.468,0.309,0.146,0.035,-0.021,-0.154,-0.155,-0.152
'0:00.617',-0.337,-0.469,-0.133,0.403,-0.102,-0.301,0.488,0.521,0.366,0.176,0.036,-0.022,-0.142,-0.177,-0.159
'0:00.618',-0.310,-0.465,-0.154,0.388,-0.078,-0.310,0.491,0.561,0.422,0.211,0.045,-0.019,-0.129,-0.185,-0.166
'0:00.619',-0.296,-0.477,-0.181,0.387,-0.057,-0.330,0.505,0.613,0.472,0.232,0.044,-0.025,-0.123,-0.199,-0.168
'0:00.620',-0.273,-0.489,-0.216,0.381,-0.028,-0.353,0.513,0.665,0.530,0.259,0.048,-0.030,-0.115,-0.214,-0.169
'0:00.621',-0.240,-0.486,-0.245,0.363,0.003,-0.366,0.511,0.712,0.600,0.302,0.064,-0.024,-0.097,-0.217,-0.177
'0:00.622',-0.211,-0.487,-0.276,0.349,0.033,-0.382,0.514,0.778,0.687,0.354,0.083,-0.017,-0.074,-0.222,-0.186
'0:00.623',-0.168,-0.483,-0.316,0.326,0.074,-0.400,0.507,0.832,0.758,0.399,0.100,-0.008,-0.049,-0.234,-0.191
'0:00.624',-0.132,-0.486,-0.355,0.309,0.112,-0.421,0.507,0.896,0.855,0.459,0.119,-0.001,-0.022,-0.251,-0.199
'0:00.625',-0.088,-0.490,-0.402,0.289,0.157,-0.446,0.521,0.976,0.977,0.528,0.134,0.000,0.002,-0.265,-0.213
'0:00.626',-0.049,-0.484,-0.435,0.267,0.193,-0.460,0.522,1.033,1.082,0.595,0.155,0.009,0.026,-0.264,-0.226
'0:00.627',-0.018,-0.478,-0.461,0.248,0.222,-0.469,0.519,1.099,1.194,0.666,0.180,0.022,0.055,-0.266,-0.234
'0:00.628',0.023,-0.472,-0.495,0.225,0.259,-0.484,0.506,1.153,1.288,0.729,0.203,0.038,0.082,-0.277,-0.237
'0:00.629',0.072,-0.456,-0.527,0.192,0.300,-0.492,0.485,1.197,1.389,0.800,0.233,0.059,0.116,-0.267,-0.239
'0:00.630',0.107,-0.440,-0.547,0.166,0.328,-0.494,0.465,1.242,1.486,0.870,0.263,0.079,0.151,-0.270,-0.244
'0:00.631',0.153,-0.426,-0.580,0.137,0.367,-0.503,0.432,1.258,1.562,0.935,0.290,0.100,0.188,-0.279,-0.246
'0:00.632',0.215,-0.406,-0.622,0.096,0.418,-0.514,0.397,1.269,1.657,1.012,0.320,0.119,0.225,-0.267,-0.251
'0:00.633',0.242,-0.392,-0.634,0.075,0.438,-0.513,0.375,1.286,1.738,1.069,0.344,0.136,0.249,-0.255,-0.254
'0:00.634',0.271,-0.389,-0.659,0.059,0.466,-0.524,0.350,1.274,1.764,1.077,0.339,0.142,0.264,-0.246,-0.237
'0:00.635',0.302,-0.379,-0.681,0.038,0.491,-0.530,0.318,1.260,1.792,1.087,0.337,0.148,0.275,-0.247,-0.226
'0:00.636',0.315,-0.363,-0.678,0.024,0.497,-0.521,0.282,1.228,1.812,1.100,0.344,0.159,0.285,-0.231,-0.220
'0:00.637',0.325,-0.343,-0.668,0.009,0.496,-0.505,0.236,1.159,1.800,1.108,0.350,0.176,0.297,-0.204,-0.212
'0:00.638',0.316,-0.320,-0.635,0.002,0.476,-0.478,0.200,1.089,1.784,1.117,0.365,0.201,0.307,-0.191,-0.203
'0:00.639',0.319,-0.299,-0.618,-0.010,0.469,-0.459,0.146,0.971,1.719,1.089,0.367,0.216,0.312,-0.170,-0.181
'0:00.640',0.338,-0.277,-0.614,-0.030,0.476,-0.446,0.083,0.833,1.619,1.042,0.362,0.228,0.313,-0.153,-0.158
'0:00.641',0.344,-0.266,-0.610,-0.040,0.477,-0.438,0.035,0.730,1.520,0.989,0.350,0.235,0.311,-0.148,-0.126
'0:00.642',0.344,-0.269,-0.613,-0.038,0.479,-0.441,-0.014,0.620,1.409,0.918,0.324,0.225,0.302,-0.143,-0.089
'0:00.643',0.345,-0.275,-0.620,-0.035,0.482,-0.447,-0.043,0.510,1.283,0.830,0.288,0.209,0.279,-0.128,-0.057
'0:00.644',0.325,-0.280,-0.605,-0.022,0.465,-0.443,-0.075,0.355,1.072,0.702,0.250,0.196,0.248,-0.114,-0.013
'0:00.645',0.281,-0.284,-0.566,0.002,0.423,-0.425,-0.117,0.145,0.782,0.549,0.213,0.191,0.213,-0.108,0.042
'0:00.646',0.228,-0.294,-0.522,0.033,0.376,-0.408,-0.137,-0.037,0.473,0.365,0.161,0.188,0.172,-0.106,0.099
'0:00.647',0.180,-0.316,-0.496,0.068,0.339,-0.406,-0.141,-0.152,0.208,0.170,0.098,0.165,0.129,-0.106,0.155
'0:00.648',0.145,-0.355,-0.501,0.105,0.324,-0.428,-0.132,-0.222,-0.017,-0.013,0.029,0.132,0.081,-0.129,0.222
'0:00.649',0.117,-0.396,-0.513,0.140,0.315,-0.455,-0.120,-0.282,-0.213,-0.179,-0.040,0.101,0.036,-0.158,0.280
'0:00.650',0.122,-0.433,-0.555,0.155,0.339,-0.494,-0.119,-0.332,-0.355,-0.306,-0.102,0.060,0.001,-0.177,0.318
'0:00.651',0.128,-0.467,-0.594,0.170,0.361,-0.530,-0.117,-0.361,-0.463,-0.403,-0.153,0.030,-0.024,-0.194,0.351
'0:00.652',0.118,-0.474,-0.592,0.178,0.355,-0.533,-0.117,-0.378,-0.509,-0.443,-0.167,0.030,-0.031,-0.196,0.369
'0:00.653',0.111,-0.487,-0.598,0.189,0.354,-0.543,-0.117,-0.377,-0.513,-0.450,-0.179,0.024,-0.038,-0.204,0.383
'0:00.654',0.111,-0.508,-0.619,0.199,0.364,-0.564,-0.113,-0.376,-0.517,-0.461,-0.201,0.006,-0.048,-0.214,0.389
'0:00.655',0.092,-0.536,-0.628,0.222,0.360,-0.583,-0.094,-0.380,-0.543,-0.488,-0.230,-0.015,-0.067,-0.233,0.403
'0:00.656',0.053,-0.569,-0.622,0.258,0.338,-0.595,-0.052,-0.371,-0.568,-0.514,-0.258,-0.034,-0.090,-0.251,0.412
'0:00.657',0.081,-0.589,-0.669,0.254,0.375,-0.629,-0.027,-0.370,-0.600,-0.545,-0.290,-0.064,-0.110,-0.268,0.423
'0:00.658',0.084,-0.629,-0.712,0.273,0.398,-0.671,0.000,-0.351,-0.632,-0.583,-0.331,-0.102,-0.133,-0.307,0.445
'0:00.659',0.047,-0.667,-0.714,0.310,0.381,-0.691,0.026,-0.334,-0.654,-0.607,-0.354,-0.123,-0.150,-0.329,0.455
'0:00.660',0.051,-0.674,-0.726,0.311,0.389,-0.700,0.044,-0.327,-0.681,-0.627,-0.368,-0.137,-0.164,-0.331,0.458
'0:00.661',0.043,-0.669,-0.713,0.313,0.378,-0.691,0.067,-0.309,-0.692,-0.636,-0.373,-0.140,-0.175,-0.324,0.457
'0:00.662',0.006,-0.684,-0.690,0.340,0.348,-0.688,0.103,-0.288,-0.702,-0.647,-0.385,-0.153,-0.197,-0.331,0.458
'0:00.663',0.002,-0.677,-0.679,0.338,0.341,-0.679,0.145,-0.261,-0.694,-0.642,-0.388,-0.166,-0.214,-0.336,0.447
'0:00.664',-0.001,-0.659,-0.658,0.330,0.329,-0.658,0.174,-0.234,-0.673,-0.623,-0.380,-0.167,-0.225,-0.311,0.424
'0:00.665',-0.045,-0.670,-0.625,0.358,0.290,-0.648,0.203,-0.208,-0.657,-0.611,-0.374,-0.169,-0.233,-0.293,0.401
'0:00.666',-0.043,-0.661,-0.619,0.352,0.288,-0.640,0.217,-0.196,-0.642,-0.597,-0.370,-0.174,-0.238,-0.273,0.371
'0:00.667',-0.058,-0.660,-0.603,0.359,0.273,-0.632,0.243,-0.184,-0.634,-0.591,-0.372,-0.182,-0.255,-0.252,0.351
'0:00.668',-0.071,-0.647,-0.576,0.359,0.253,-0.612,0.285,-0.150,-0.617,-0.578,-0.362,-0.176,-0.265,-0.236,0.343
'0:00.669',-0.071,-0.622,-0.550,0.346,0.239,-0.586,0.322,-0.114,-0.595,-0.560,-0.348,-0.169,-0.271,-0.224,0.326
'0:00.670',-0.085,-0.596,-0.511,0.340,0.213,-0.553,0.371,-0.068,-0.560,-0.533,-0.330,-0.160,-0.277,-0.207,0.299
'0:00.671',-0.112,-0.585,-0.474,0.348,0.181,-0.529,0.410,-0.032,-0.522,-0.503,-0.314,-0.154,-0.279,-0.178,0.268
'0:00.672',-0.159,-0.580,-0.422,0.369,0.132,-0.501,0.450,-0.001,-0.482,-0.468,-0.293,-0.143,-0.282,-0.143,0.228
'0:00.673',-0.190,-0.554,-0.364,0.372,0.087,-0.460,0.509,0.041,-0.428,-0.420,-0.262,-0.128,-0.286,-0.106,0.176
'0:00.674',-0.234,-0.536,-0.303,0.385,0.035,-0.420,0.570,0.081,-0.385,-0.388,-0.241,-0.119,-0.295,-0.074,0.134
'0:00.675',-0.256,-0.506,-0.250,0.381,-0.003,-0.378,0.624,0.108,-0.364,-0.363,-0.222,-0.110,-0.308,-0.051,0.101
'0:00.676',-0.286,-0.511,-0.226,0.399,-0.030,-0.369,0.667,0.127,-0.367,-0.358,-0.218,-0.112,-0.318,-0.040,0.080
'0:00.677',-0.301,-0.502,-0.201,0.402,-0.051,-0.351,0.724,0.172,-0.344,-0.343,-0.207,-0.108,-0.324,-0.029,0.058
'0:00.678',-0.311,-0.485,-0.174,0.399,-0.069,-0.330,0.786,0.216,-0.318,-0.320,-0.191,-0.107,-0.331,-0.035,0.032
'0:00.679',-0.345,-0.486,-0.141,0.415,-0.102,-0.314,0.838,0.236,-0.318,-0.317,-0.185,-0.105,-0.339,-0.032,0.015
'0:00.680',-0.363,-0.485,-0.121,0.424,-0.121,-0.303,0.891,0.256,-0.319,-0.316,-0.179,-0.101,-0.348,-0.010,-0.004
'0:00.681',-0.396,-0.507,-0.112,0.451,-0.141,-0.310,0.938,0.275,-0.323,-0.317,-0.177,-0.106,-0.354,-0.014,-0.014
'0:00.682',-0.427,-0.522,-0.094,0.474,-0.167,-0.308,0.956,0.275,-0.329,-0.316,-0.175,-0.110,-0.356,-0.026,-0.021
'0:00.683',-0.432,-0.521,-0.089,0.476,-0.171,-0.305,0.995,0.288,-0.322,-0.306,-0.168,-0.110,-0.363,-0.029,-0.035
'0:00.684',-0.443,-0.511,-0.068,0.476,-0.187,-0.290,1.028,0.294,-0.310,-0.289,-0.154,-0.100,-0.367,-0.021,-0.053
'0:00.685',-0.454,-0.492,-0.039,0.472,-0.207,-0.266,1.028,0.272,-0.310,-0.275,-0.135,-0.088,-0.369,-0.007,-0.073
'0:00.686',-0.473,-0.481,-0.008,0.476,-0.232,-0.245,1.042,0.259,-0.306,-0.260,-0.118,-0.077,-0.372,0.006,-0.100
'0:00.687',-0.503,-0.479,0.024,0.490,-0.264,-0.228,1.032,0.236,-0.304,-0.242,-0.102,-0.068,-0.370,0.024,-0.127
'0:00.688',-0.512,-0.466,0.046,0.488,-0.279,-0.209,1.048,0.227,-0.295,-0.226,-0.087,-0.059,-0.372,0.039,-0.147
'0:00.689',-0.531,-0.450,0.082,0.490,-0.306,-0.184,1.071,0.225,-0.281,-0.206,-0.071,-0.045,-0.378,0.043,-0.171
'0:00.690',-0.534,-0.434,0.100,0.483,-0.317,-0.167,1.075,0.213,-0.269,-0.188,-0.059,-0.036,-0.376,0.054,-0.189
'0:00.691',-0.536,-0.430,0.106,0.483,-0.321,-0.163,1.113,0.210,-0.262,-0.178,-0.053,-0.035,-0.377,0.062,-0.208
'0:00.692',-0.561,-0.430,0.131,0.495,-0.346,-0.150,1.143,0.205,-0.254,-0.165,-0.041,-0.025,-0.377,0.062,-0.224
'0:00.693',-0.580,-0.421,0.158,0.500,-0.368,-0.132,1.169,0.192,-0.244,-0.151,-0.028,-0.018,-0.377,0.070,-0.240
'0:00.694',-0.595,-0.414,0.180,0.503,-0.387,-0.117,1.191,0.184,-0.236,-0.138,-0.018,-0.016,-0.380,0.082,-0.263
'0:00.695',-0.601,-0.404,0.197,0.501,-0.399,-0.103,1.209,0.175,-0.234,-0.131,-0.008,-0.011,-0.380,0.093,-0.275
'0:00.696',-0.616,-0.400,0.216,0.507,-0.415,-0.092,1.230,0.161,-0.239,-0.129,-0.002,-0.006,-0.385,0.095,-0.284
'0:00.697',-0.625,-0.404,0.221,0.514,-0.422,-0.092,1.242,0.143,-0.253,-0.134,-0.004,-0.007,-0.390,0.102,-0.291
'0:00.698',-0.618,-0.399,0.219,0.507,-0.418,-0.090,1.244,0.126,-0.269,-0.141,-0.004,-0.011,-0.392,0.104,-0.292
'0:00.699',-0.607,-0.384,0.224,0.494,-0.415,-0.080,1.246,0.124,-0.272,-0.137,0.003,-0.004,-0.390,0.099,-0.283
'0:00.700',-0.609,-0.400,0.209,0.503,-0.408,-0.096,1.224,0.107,-0.286,-0.146,-0.005,-0.005,-0.381,0.092,-0.270
'0:00.701',-0.621,-0.432,0.189,0.526,-0.405,-0.121,1.190,0.086,-0.308,-0.162,-0.019,-0.014,-0.371,0.087,-0.255
'0:00.702',-0.611,-0.434,0.176,0.522,-0.393,-0.130,1.169,0.081,-0.314,-0.168,-0.023,-0.015,-0.364,0.081,-0.241
'0:00.703',-0.592,-0.424,0.168,0.507,-0.380,-0.129,1.141,0.079,-0.312,-0.163,-0.019,-0.009,-0.355,0.065,-0.227
'0:00.704',-0.571,-0.409,0.162,0.489,-0.366,-0.124,1.106,0.081,-0.306,-0.150,-0.007,0.001,-0.343,0.062,-0.215
'0:00.705',-0.558,-0.407,0.150,0.482,-0.354,-0.129,1.038,0.071,-0.305,-0.148,-0.002,0.005,-0.328,0.056,-0.200
'0:00.706',-0.546,-0.409,0.137,0.477,-0.342,-0.137,0.957,0.064,-0.304,-0.143,0.004,0.011,-0.309,0.042,-0.177
'0:00.707',-0.529,-0.401,0.128,0.465,-0.328,-0.137,0.878,0.051,-0.297,-0.133,0.013,0.019,-0.291,0.035,-0.163
'0:00.708',-0.502,-0.390,0.113,0.446,-0.307,-0.139,0.794,0.034,-0.289,-0.123,0.022,0.025,-0.276,0.035,-0.150
'0:00.709',-0.479,-0.363,0.116,0.421,-0.297,-0.124,0.730,0.026,-0.278,-0.108,0.037,0.041,-0.260,0.045,-0.140
'0:00.710',-0.468,-0.343,0.124,0.405,-0.296,-0.110,0.656,0.009,-0.272,-0.098,0.046,0.051,-0.247,0.054,-0.129
'0:00.711',-0.436,-0.331,0.105,0.384,-0.271,-0.113,0.585,-0.005,-0.263,-0.089,0.054,0.054,-0.234,0.054,-0.118
'0:00.712',-0.419,-0.324,0.096,0.372,-0.258,-0.115,0.530,-0.011,-0.249,-0.076,0.065,0.064,-0.217,0.046,-0.111
'0:00.713',-0.421,-0.313,0.108,0.367,-0.264,-0.103,0.474,-0.016,-0.234,-0.061,0.079,0.076,-0.204,0.050,-0.104
'0:00.714',-0.415,-0.291,0.124,0.353,-0.270,-0.084,0.429,-0.018,-0.216,-0.043,0.092,0.088,-0.193,0.066,-0.104
'0:00.715',-0.389,-0.270,0.120,0.330,-0.254,-0.075,0.383,-0.025,-0.199,-0.026,0.104,0.097,-0.178,0.077,-0.104
'0:00.716',-0.351,-0.254,0.097,0.302,-0.224,-0.079,0.327,-0.041,-0.189,-0.018,0.107,0.100,-0.164,0.083,-0.104
'0:00.717',-0.337,-0.238,0.098,0.287,-0.217,-0.070,0.282,-0.053,-0.180,-0.008,0.115,0.108,-0.151,0.083,-0.103
'0:00.718',-0.344,-0.222,0.123,0.283,-0.234,-0.050,0.252,-0.057,-0.160,0.014,0.136,0.126,-0.141,0.086,-0.100
'0:00.719',-0.336,-0.221,0.116,0.278,-0.226,-0.052,0.205,-0.074,-0.149,0.022,0.141,0.130,-0.130,0.090,-0.097
'0:00.720',-0.306,-0.212,0.095,0.259,-0.200,-0.059,0.165,-0.091,-0.146,0.027,0.145,0.136,-0.118,0.096,-0.091
'0:00.721',-0.310,-0.202,0.109,0.256,-0.209,-0.046,0.142,-0.097,-0.132,0.042,0.162,0.149,-0.109,0.096,-0.087
'0:00.722',-0.305,-0.197,0.108,0.251,-0.206,-0.045,0.108,-0.110,-0.126,0.048,0.166,0.153,-0.100,0.095,-0.083
'0:00.723',-0.267,-0.188,0.079,0.228,-0.172,-0.055,0.079,-0.123,-0.121,0.051,0.165,0.151,-0.093,0.091,-0.082
'0:00.724',-0.259,-0.182,0.076,0.221,-0.167,-0.053,0.066,-0.127,-0.110,0.060,0.174,0.160,-0.085,0.085,-0.082
'0:00.725',-0.256,-0.176,0.079,0.215,-0.167,-0.049,0.056,-0.129,-0.107,0.066,0.181,0.164,-0.079,0.087,-0.079
'0:00.726',-0.230,-0.166,0.064,0.198,-0.146,-0.051,0.045,-0.132,-0.102,0.069,0.185,0.161,-0.074,0.088,-0.079
'0:00.727',-0.234,-0.171,0.063,0.202,-0.148,-0.054,0.038,-0.132,-0.093,0.075,0.186,0.164,-0.070,0.090,-0.078
'0:00.728',-0.243,-0.180,0.063,0.211,-0.152,-0.059,0.029,-0.129,-0.088,0.080,0.184,0.169,-0.062,0.087,-0.077
'0:00.729',-0.210,-0.157,0.053,0.184,-0.132,-0.052,0.025,-0.126,-0.081,0.086,0.194,0.175,-0.055,0.091,-0.077
'0:00.730',-0.216,-0.157,0.059,0.187,-0.138,-0.049,0.020,-0.129,-0.082,0.085,0.193,0.173,-0.052,0.090,-0.072
'0:00.731',-0.236,-0.179,0.058,0.208,-0.147,-0.061,0.009,-0.138,-0.087,0.080,0.184,0.164,-0.051,0.081,-0.074
'0:00.732',-0.216,-0.169,0.048,0.193,-0.132,-0.060,0.006,-0.136,-0.085,0.083,0.187,0.163,-0.050,0.084,-0.070
'0:00.733',-0.222,-0.159,0.063,0.191,-0.142,-0.048,0.007,-0.126,-0.072,0.091,0.197,0.174,-0.046,0.085,-0.067
'0:00.734',-0.227,-0.164,0.063,0.195,-0.144,-0.051,0.000,-0.131,-0.073,0.089,0.195,0.172,-0.043,0.087,-0.067
'0:00.735',-0.230,-0.169,0.061,0.199,-0.145,-0.054,-0.006,-0.133,-0.076,0.088,0.192,0.170,-0.040,0.089,-0.064
'0:00.736',-0.242,-0.175,0.068,0.208,-0.154,-0.054,-0.014,-0.135,-0.075,0.090,0.191,0.170,-0.037,0.085,-0.062
'0:00.737',-0.219,-0.168,0.051,0.194,-0.135,-0.059,-0.025,-0.139,-0.081,0.087,0.188,0.168,-0.035,0.093,-0.058
'0:00.738',-0.207,-0.163,0.045,0.185,-0.126,-0.059,-0.026,-0.140,-0.082,0.085,0.186,0.167,-0.033,0.092,-0.057
'0:00.739',-0.224,-0.171,0.053,0.197,-0.139,-0.059,-0.029,-0.141,-0.081,0.086,0.188,0.166,-0.035,0.084,-0.054
'0:00.740',-0.213,-0.165,0.049,0.189,-0.131,-0.058,-0.029,-0.138,-0.075,0.093,0.193,0.172,-0.033,0.086,-0.052
'0:00.741',-0.189,-0.159,0.030,0.174,-0.110,-0.065,-0.033,-0.141,-0.078,0.088,0.188,0.172,-0.030,0.086,-0.051
'0:00.742',-0.211,-0.166,0.046,0.189,-0.129,-0.060,-0.033,-0.139,-0.077,0.089,0.188,0.177,-0.028,0.089,-0.051
'0:00.743',-0.236,-0.172,0.064,0.204,-0.149,-0.054,-0.030,-0.137,-0.073,0.095,0.194,0.183,-0.026,0.088,-0.050
'0:00.744',-0.216,-0.172,0.045,0.194,-0.131,-0.064,-0.035,-0.140,-0.076,0.092,0.191,0.178,-0.027,0.077,-0.051
'0:00.745',-0.198,-0.167,0.030,0.182,-0.114,-0.069,-0.042,-0.144,-0.079,0.088,0.186,0.172,-0.026,0.086,-0.051
'0:00.746',-0.200,-0.166,0.034,0.182,-0.117,-0.066,-0.041,-0.145,-0.077,0.091,0.188,0.174,-0.027,0.092,-0.049
'0:00.747',-0.197,-0.160,0.037,0.178,-0.117,-0.061,-0.032,-0.138,-0.070,0.099,0.197,0.181,-0.027,0.082,-0.050
'0:00.748',-0.193,-0.160,0.034,0.176,-0.113,-0.064,-0.038,-0.136,-0.071,0.097,0.196,0.183,-0.025,0.079,-0.049
'0:00.749',-0.193,-0.164,0.029,0.178,-0.111,-0.068,-0.045,-0.141,-0.076,0.094,0.191,0.179,-0.025,0.087,-0.051
'0:00.750',-0.206,-0.161,0.045,0.183,-0.125,-0.059,-0.050,-0.144,-0.074,0.097,0.195,0.180,-0.024,0.092,-0.050
'0:00.751',-0.217,-0.166,0.051,0.192,-0.134,-0.058,-0.046,-0.142,-0.077,0.094,0.194,0.179,-0.025,0.092,-0.049
'0:00.752',-0.205,-0.165,0.040,0.185,-0.122,-0.063,-0.041,-0.145,-0.080,0.093,0.192,0.177,-0.025,0.089,-0.053
'0:00.753',-0.200,-0.157,0.043,0.178,-0.121,-0.057,-0.044,-0.143,-0.076,0.097,0.195,0.181,-0.023,0.090,-0.051
'0:00.754',-0.205,-0.153,0.051,0.179,-0.128,-0.051,-0.042,-0.139,-0.076,0.098,0.195,0.182,-0.022,0.090,-0.051
'0:00.755',-0.208,-0.150,0.058,0.179,-0.133,-0.046,-0.041,-0.141,-0.074,0.100,0.197,0.183,-0.023,0.083,-0.053
'0:00.756',-0.226,-0.163,0.063,0.195,-0.144,-0.050,-0.044,-0.144,-0.079,0.097,0.195,0.179,-0.023,0.087,-0.051
'0:00.757',-0.215,-0.158,0.058,0.187,-0.136,-0.051,-0.045,-0.142,-0.081,0.094,0.194,0.180,-0.021,0.092,-0.049
'0:00.758',-0.191,-0.138,0.052,0.164,-0.121,-0.043,-0.043,-0.138,-0.076,0.099,0.199,0.183,-0.022,0.098,-0.051
'0:00.759',-0.215,-0.168,0.048,0.192,-0.132,-0.060,-0.054,-0.149,-0.087,0.089,0.188,0.171,-0.025,0.103,-0.049
'0:00.760',-0.225,-0.188,0.037,0.206,-0.131,-0.075,-0.061,-0.155,-0.095,0.080,0.179,0.167,-0.024,0.090,-0.048
'0:00.761',-0.223,-0.177,0.046,0.200,-0.135,-0.066,-0.052,-0.147,-0.090,0.086,0.189,0.173,-0.024,0.081,-0.048
'0:00.762',-0.232,-0.173,0.059,0.203,-0.145,-0.058,-0.048,-0.142,-0.083,0.093,0.193,0.179,-0.021,0.083,-0.046
'0:00.763',-0.224,-0.172,0.052,0.198,-0.138,-0.060,-0.048,-0.141,-0.080,0.095,0.193,0.180,-0.019,0.080,-0.047
'0:00.764',-0.201,-0.176,0.025,0.189,-0.113,-0.076,-0.054,-0.149,-0.090,0.087,0.185,0.171,-0.021,0.080,-0.046
'0:00.765',-0.182,-0.174,0.007,0.178,-0.095,-0.084,-0.057,-0.151,-0.093,0.084,0.182,0.167,-0.020,0.077,-0.046
'0:00.766',-0.193,-0.173,0.019,0.183,-0.105,-0.077,-0.053,-0.145,-0.089,0.088,0.186,0.171,-0.021,0.075,-0.048
'0:00.767',-0.201,-0.175,0.025,0.188,-0.113,-0.075,-0.051,-0.147,-0.089,0.090,0.187,0.168,-0.025,0.077,-0.047
'0:00.768',-0.199,-0.177,0.022,0.188,-0.111,-0.077,-0.051,-0.145,-0.088,0.091,0.190,0.172,-0.021,0.076,-0.045
'0:00.769',-0.193,-0.173,0.019,0.182,-0.106,-0.077,-0.053,-0.145,-0.089,0.089,0.185,0.174,-0.021,0.087,-0.044
'0:00.770',-0.203,-0.170,0.033,0.186,-0.117,-0.069,-0.054,-0.148,-0.091,0.088,0.184,0.170,-0.024,0.093,-0.045
'0:00.771',-0.205,-0.170,0.036,0.188,-0.120,-0.067,-0.055,-0.147,-0.090,0.087,0.183,0.169,-0.024,0.088,-0.046
'0:00.772',-0.197,-0.167,0.030,0.182,-0.113,-0.069,-0.057,-0.146,-0.089,0.089,0.184,0.171,-0.022,0.080,-0.046
'0:00.773',-0.207,-0.171,0.036,0.189,-0.121,-0.068,-0.056,-0.145,-0.087,0.091,0.189,0.171,-0.025,0.080,-0.048
'0:00.774',-0.212,-0.169,0.043,0.191,-0.128,-0.063,-0.056,-0.146,-0.087,0.087,0.185,0.170,-0.026,0.090,-0.045
'0:00.775',-0.210,-0.164,0.046,0.187,-0.128,-0.059,-0.057,-0.145,-0.089,0.085,0.185,0.172,-0.025,0.092,-0.043
'0:00.776',-0.214,-0.161,0.053,0.188,-0.134,-0.054,-0.054,-0.142,-0.086,0.089,0.191,0.175,-0.024,0.084,-0.042
'0:00.777',-0.210,-0.158,0.052,0.184,-0.131,-0.053,-0.056,-0.143,-0.086,0.088,0.191,0.173,-0.019,0.083,-0.041
'0:00.778',-0.222,-0.160,0.062,0.191,-0.141,-0.049,-0.053,-0.140,-0.083,0.088,0.194,0.175,-0.021,0.083,-0.042
'0:00.779',-0.224,-0.163,0.061,0.194,-0.142,-0.051,-0.054,-0.141,-0.086,0.086,0.191,0.172,-0.024,0.084,-0.040
'0:00.780',-0.192,-0.161,0.030,0.176,-0.111,-0.066,-0.062,-0.149,-0.095,0.079,0.182,0.163,-0.025,0.102,-0.041
'0:00.781',-0.201,-0.163,0.037,0.181,-0.118,-0.063,-0.060,-0.146,-0.091,0.081,0.185,0.167,-0.024,0.097,-0.042
'0:00.782',-0.205,-0.164,0.041,0.184,-0.123,-0.062,-0.060,-0.146,-0.091,0.080,0.184,0.168,-0.022,0.088,-0.042
'0:00.783',-0.199,-0.166,0.034,0.182,-0.116,-0.066,-0.062,-0.146,-0.086,0.082,0.184,0.165,-0.022,0.090,-0.044
'0:00.784',-0.205,-0.172,0.033,0.190,-0.119,-0.070,-0.064,-0.144,-0.086,0.083,0.184,0.165,-0.024,0.081,-0.044
'0:00.785',-0.201,-0.172,0.029,0.186,-0.115,-0.071,-0.058,-0.145,-0.091,0.079,0.180,0.159,-0.029,0.070,-0.043
'0:00.786',-0.193,-0.162,0.032,0.177,-0.112,-0.066,-0.059,-0.144,-0.089,0.081,0.183,0.161,-0.029,0.072,-0.043
'0:00.787',-0.188,-0.159,0.029,0.173,-0.107,-0.066,-0.058,-0.141,-0.087,0.081,0.185,0.165,-0.025,0.073,-0.041
'0:00.788',-0.203,-0.174,0.029,0.188,-0.116,-0.072,-0.055,-0.141,-0.089,0.077,0.179,0.160,-0.025,0.076,-0.041
'0:00.789',-0.193,-0.164,0.029,0.178,-0.111,-0.068,-0.054,-0.138,-0.085,0.080,0.181,0.162,-0.028,0.086,-0.042
'0:00.790',-0.196,-0.163,0.033,0.179,-0.114,-0.065,-0.057,-0.141,-0.088,0.077,0.176,0.159,-0.030,0.085,-0.041
'0:00.791',-0.204,-0.166,0.038,0.185,-0.121,-0.064,-0.059,-0.144,-0.091,0.072,0.169,0.158,-0.030,0.087,-0.040
'0:00.792',-0.193,-0.154,0.039,0.173,-0.116,-0.058,-0.055,-0.138,-0.083,0.076,0.171,0.164,-0.029,0.088,-0.036
'0:00.793',-0.208,-0.172,0.036,0.190,-0.122,-0.068,-0.061,-0.146,-0.089,0.071,0.165,0.155,-0.028,0.082,-0.035
'0:00.794',-0.206,-0.166,0.040,0.186,-0.122,-0.064,-0.058,-0.141,-0.085,0.073,0.167,0.157,-0.029,0.079,-0.036
'0:00.795',-0.204,-0.159,0.046,0.181,-0.126,-0.057,-0.055,-0.139,-0.083,0.076,0.170,0.159,-0.029,0.080,-0.036
'0:00.796',-0.206,-0.162,0.045,0.184,-0.126,-0.059,-0.058,-0.141,-0.083,0.075,0.169,0.157,-0.032,0.081,-0.035
'0:00.797',-0.201,-0.159,0.043,0.180,-0.121,-0.059,-0.055,-0.138,-0.081,0.080,0.171,0.156,-0.033,0.082,-0.036
'0:00.798',-0.199,-0.161,0.038,0.179,-0.118,-0.061,-0.059,-0.139,-0.085,0.074,0.167,0.153,-0.028,0.080,-0.036
'0:00.799',-0.198,-0.161,0.037,0.179,-0.117,-0.061,-0.057,-0.135,-0.081,0.075,0.169,0.157,-0.026,0.084,-0.032
'0:00.800',-0.195,-0.162,0.034,0.178,-0.114,-0.065,-0.056,-0.134,-0.076,0.080,0.171,0.158,-0.026,0.086,-0.031
'0:00.801',-0.189,-0.164,0.025,0.176,-0.106,-0.070,-0.057,-0.132,-0.076,0.078,0.170,0.155,-0.026,0.083,-0.030
'0:00.802',-0.187,-0.166,0.021,0.176,-0.104,-0.072,-0.056,-0.131,-0.075,0.079,0.172,0.155,-0.025,0.082,-0.029
'0:00.803',-0.181,-0.165,0.016,0.173,-0.098,-0.075,-0.056,-0.128,-0.073,0.080,0.171,0.155,-0.025,0.071,-0.030
'0:00.804',-0.191,-0.172,0.018,0.181,-0.104,-0.077,-0.056,-0.128,-0.073,0.080,0.170,0.154,-0.026,0.070,-0.029
'0:00.805',-0.203,-0.181,0.021,0.192,-0.112,-0.080,-0.057,-0.128,-0.070,0.082,0.171,0.155,-0.027,0.072,-0.030
'0:00.806',-0.207,-0.180,0.028,0.194,-0.117,-0.076,-0.053,-0.123,-0.065,0.085,0.172,0.158,-0.025,0.068,-0.031
'0:00.807',-0.211,-0.180,0.031,0.196,-0.120,-0.075,-0.052,-0.120,-0.063,0.086,0.174,0.159,-0.024,0.061,-0.030
'0:00.808',-0.216,-0.180,0.036,0.199,-0.126,-0.072,-0.051,-0.115,-0.056,0.090,0.177,0.161,-0.024,0.058,-0.031
'0:00.809',-0.227,-0.175,0.051,0.201,-0.139,-0.062,-0.042,-0.108,-0.051,0.095,0.181,0.164,-0.026,0.065,-0.032
'0:00.810',-0.206,-0.176,0.030,0.191,-0.118,-0.073,-0.051,-0.117,-0.062,0.084,0.172,0.151,-0.028,0.070,-0.033
'0:00.811',-0.184,-0.176,0.009,0.180,-0.096,-0.084,-0.058,-0.123,-0.067,0.077,0.163,0.147,-0.025,0.066,-0.033
'0:00.812',-0.165,-0.172,-0.006,0.168,-0.079,-0.089,-0.059,-0.121,-0.066,0.075,0.160,0.147,-0.025,0.064,-0.035
'0:00.813',-0.179,-0.173,0.005,0.176,-0.092,-0.085,-0.059,-0.118,-0.063,0.077,0.160,0.146,-0.026,0.059,-0.035
'0:00.814',-0.198,-0.175,0.023,0.186,-0.110,-0.076,-0.057,-0.114,-0.056,0.084,0.164,0.149,-0.025,0.054,-0.029
'0:00.815',-0.179,-0.174,0.004,0.176,-0.091,-0.085,-0.064,-0.119,-0.062,0.077,0.155,0.141,-0.026,0.056,-0.029
'0:00.816',-0.186,-0.180,0.006,0.183,-0.096,-0.087,-0.064,-0.119,-0.062,0.075,0.149,0.137,-0.029,0.058,-0.026
'0:00.817',-0.194,-0.180,0.013,0.188,-0.103,-0.084,-0.060,-0.114,-0.057,0.077,0.154,0.140,-0.027,0.058,-0.026
'0:00.818',-0.200,-0.180,0.020,0.190,-0.110,-0.080,-0.059,-0.111,-0.053,0.080,0.157,0.141,-0.026,0.053,-0.027
'0:00.819',-0.195,-0.182,0.013,0.188,-0.103,-0.085,-0.066,-0.109,-0.048,0.081,0.153,0.138,-0.026,0.049,-0.023
'0:00.820',-0.189,-0.183,0.005,0.186,-0.097,-0.089,-0.058,-0.105,-0.049,0.080,0.152,0.138,-0.028,0.049,-0.022
'0:00.821',-0.201,-0.188,0.013,0.194,-0.106,-0.087,-0.050,-0.101,-0.045,0.083,0.156,0.140,-0.029,0.046,-0.021
'0:00.822',-0.203,-0.193,0.009,0.198,-0.105,-0.092,-0.056,-0.100,-0.045,0.080,0.153,0.136,-0.028,0.051,-0.021
'0:00.823',-0.167,-0.192,-0.025,0.179,-0.070,-0.109,-0.064,-0.104,-0.052,0.072,0.141,0.126,-0.028,0.059,-0.020
'0:00.824',-0.154,-0.195,-0.040,0.174,-0.057,-0.117,-0.067,-0.106,-0.053,0.070,0.139,0.122,-0.026,0.053,-0.018
'0:00.825',-0.169,-0.201,-0.032,0.185,-0.069,-0.116,-0.059,-0.099,-0.044,0.079,0.146,0.129,-0.025,0.034,-0.017
'0:00.826',-0.160,-0.198,-0.039,0.178,-0.060,-0.119,-0.059,-0.093,-0.037,0.082,0.145,0.129,-0.025,0.029,-0.018
'0:00.827',-0.161,-0.197,-0.035,0.178,-0.062,-0.116,-0.059,-0.090,-0.033,0.083,0.145,0.128,-0.025,0.036,-0.018
'0:00.828',-0.172,-0.205,-0.033,0.189,-0.070,-0.119,-0.054,-0.083,-0.030,0.083,0.145,0.128,-0.025,0.021,-0.017
'0:00.829',-0.174,-0.209,-0.035,0.192,-0.069,-0.123,-0.053,-0.080,-0.029,0.083,0.141,0.127,-0.022,0.020,-0.018
'0:00.830',-0.166,-0.210,-0.044,0.188,-0.060,-0.128,-0.061,-0.085,-0.033,0.076,0.135,0.119,-0.024,0.025,-0.015
'0:00.831',-0.164,-0.211,-0.048,0.188,-0.058,-0.130,-0.060,-0.081,-0.028,0.076,0.132,0.117,-0.024,0.021,-0.015
'0:00.832',-0.148,-0.191,-0.043,0.170,-0.052,-0.117,-0.051,-0.067,-0.011,0.090,0.143,0.127,-0.022,0.022,-0.017
'0:00.833',-0.151,-0.191,-0.039,0.171,-0.056,-0.115,-0.049,-0.064,-0.009,0.089,0.142,0.124,-0.022,0.019,-0.015
'0:00.834',-0.166,-0.207,-0.042,0.186,-0.061,-0.125,-0.053,-0.068,-0.014,0.083,0.134,0.116,-0.023,0.025,-0.013
'0:00.835',-0.175,-0.224,-0.048,0.200,-0.064,-0.136,-0.059,-0.068,-0.012,0.081,0.127,0.112,-0.019,0.015,-0.013
'0:00.836',-0.185,-0.233,-0.048,0.209,-0.069,-0.141,-0.059,-0.066,-0.011,0.078,0.123,0.110,-0.018,0.000,-0.011
'0:00.837',-0.178,-0.230,-0.051,0.204,-0.064,-0.141,-0.056,-0.061,-0.010,0.079,0.123,0.106,-0.022,-0.001,-0.010
'0:00.838',-0.178,-0.231,-0.053,0.204,-0.062,-0.142,-0.058,-0.058,-0.005,0.079,0.122,0.104,-0.021,0.006,-0.011
'0:00.839',-0.169,-0.226,-0.057,0.198,-0.056,-0.142,-0.058,-0.052,0.002,0.081,0.122,0.104,-0.020,0.008,-0.006
'0:00.840',-0.159,-0.227,-0.069,0.193,-0.045,-0.147,-0.052,-0.043,0.009,0.085,0.121,0.105,-0.021,-0.002,-0.004
'0:00.841',-0.148,-0.224,-0.076,0.185,-0.035,-0.150,-0.049,-0.035,0.015,0.088,0.121,0.108,-0.018,-0.009,-0.002
'0:00.842',-0.149,-0.232,-0.083,0.191,-0.034,-0.158,-0.051,-0.035,0.015,0.084,0.116,0.104,-0.017,-0.013,0.001
'0:00.843',-0.157,-0.254,-0.096,0.205,-0.030,-0.175,-0.054,-0.036,0.015,0.081,0.111,0.096,-0.017,-0.015,-0.001
'0:00.844',-0.139,-0.245,-0.106,0.192,-0.016,-0.176,-0.051,-0.024,0.026,0.088,0.113,0.098,-0.018,-0.019,0.001
'0:00.845',-0.130,-0.239,-0.109,0.184,-0.010,-0.174,-0.046,-0.014,0.037,0.095,0.115,0.099,-0.021,-0.027,0.003
'0:00.846',-0.129,-0.246,-0.117,0.188,-0.005,-0.182,-0.046,-0.011,0.039,0.092,0.111,0.094,-0.021,-0.030,0.004
'0:00.847',-0.136,-0.256,-0.120,0.196,-0.007,-0.188,-0.046,-0.009,0.041,0.090,0.104,0.089,-0.020,-0.035,0.006
'0:00.848',-0.149,-0.272,-0.122,0.210,-0.013,-0.198,-0.051,-0.009,0.042,0.088,0.098,0.083,-0.020,-0.041,0.007
'0:00.849',-0.137,-0.268,-0.131,0.203,-0.003,-0.200,-0.048,-0.001,0.050,0.092,0.100,0.084,-0.017,-0.043,0.007
'0:00.850',-0.130,-0.259,-0.129,0.195,0.000,-0.195,-0.043,0.006,0.061,0.098,0.103,0.086,-0.016,-0.039,0.009
'0:00.851',-0.131,-0.263,-0.132,0.197,0.001,-0.198,-0.043,0.011,0.067,0.098,0.099,0.084,-0.016,-0.043,0.010
'0:00.852',-0.127,-0.265,-0.139,0.196,0.006,-0.202,-0.040,0.021,0.074,0.102,0.099,0.083,-0.017,-0.047,0.011
'0:00.853',-0.124,-0.265,-0.141,0.195,0.009,-0.203,-0.044,0.025,0.078,0.103,0.097,0.081,-0.018,-0.051,0.013
'0:00.854',-0.117,-0.264,-0.146,0.191,0.015,-0.205,-0.040,0.030,0.083,0.103,0.095,0.076,-0.018,-0.049,0.015
'0:00.855',-0.114,-0.262,-0.147,0.188,0.017,-0.204,-0.033,0.040,0.092,0.107,0.097,0.075,-0.018,-0.047,0.013
'0:00.856',-0.112,-0.261,-0.148,0.186,0.018,-0.204,-0.031,0.048,0.102,0.111,0.099,0.076,-0.018,-0.056,0.013
'0:00.857',-0.104,-0.265,-0.161,0.185,0.029,-0.213,-0.033,0.052,0.108,0.112,0.098,0.070,-0.018,-0.062,0.015
'0:00.858',-0.104,-0.273,-0.169,0.189,0.033,-0.221,-0.035,0.055,0.108,0.108,0.090,0.068,-0.016,-0.064,0.017
'0:00.859',-0.102,-0.274,-0.172,0.188,0.035,-0.223,-0.032,0.061,0.116,0.111,0.088,0.070,-0.014,-0.064,0.021
'0:00.860',-0.093,-0.277,-0.184,0.185,0.045,-0.231,-0.030,0.070,0.126,0.117,0.090,0.069,-0.016,-0.076,0.021
'0:00.861',-0.089,-0.283,-0.194,0.186,0.052,-0.238,-0.031,0.073,0.130,0.119,0.086,0.066,-0.016,-0.083,0.022
'0:00.862',-0.085,-0.286,-0.201,0.185,0.059,-0.244,-0.032,0.074,0.134,0.115,0.079,0.060,-0.015,-0.077,0.025
'0:00.863',-0.068,-0.285,-0.217,0.176,0.075,-0.252,-0.030,0.084,0.139,0.116,0.076,0.057,-0.013,-0.087,0.026
'0:00.864',-0.061,-0.288,-0.227,0.175,0.083,-0.258,-0.034,0.086,0.143,0.117,0.075,0.056,-0.011,-0.094,0.026
'0:00.865',-0.088,-0.314,-0.225,0.201,0.069,-0.270,-0.035,0.086,0.147,0.117,0.072,0.049,-0.015,-0.097,0.026
'0:00.866',-0.086,-0.321,-0.235,0.203,0.075,-0.278,-0.035,0.092,0.152,0.117,0.070,0.045,-0.013,-0.097,0.029
'0:00.867',-0.074,-0.317,-0.242,0.196,0.085,-0.281,-0.031,0.096,0.158,0.118,0.070,0.044,-0.011,-0.110,0.029
'0:00.868',-0.071,-0.319,-0.247,0.195,0.088,-0.283,-0.029,0.105,0.169,0.123,0.070,0.045,-0.011,-0.122,0.029
'0:00.869',-0.061,-0.314,-0.254,0.188,0.097,-0.284,-0.030,0.112,0.176,0.127,0.070,0.045,-0.010,-0.109,0.029
'0:00.870',-0.065,-0.315,-0.249,0.190,0.093,-0.282,-0.025,0.116,0.177,0.127,0.067,0.040,-0.014,-0.113,0.032
'0:00.871',-0.061,-0.316,-0.255,0.189,0.097,-0.285,-0.028,0.120,0.182,0.127,0.064,0.035,-0.013,-0.119,0.034
'0:00.872',-0.059,-0.319,-0.260,0.189,0.100,-0.289,-0.027,0.127,0.188,0.129,0.060,0.032,-0.013,-0.120,0.033
'0:00.873',-0.055,-0.316,-0.261,0.185,0.103,-0.289,-0.025,0.135,0.194,0.130,0.056,0.030,-0.013,-0.122,0.034
'0:00.874',-0.058,-0.321,-0.264,0.190,0.103,-0.292,-0.026,0.139,0.197,0.129,0.052,0.026,-0.013,-0.124,0.037
'0:00.875',-0.056,-0.325,-0.269,0.190,0.107,-0.297,-0.025,0.144,0.203,0.133,0.051,0.024,-0.013,-0.138,0.037
'0:00.876',-0.053,-0.326,-0.273,0.190,0.110,-0.299,-0.025,0.151,0.208,0.136,0.051,0.023,-0.010,-0.146,0.038
'0:00.877',-0.064,-0.332,-0.268,0.198,0.102,-0.300,-0.021,0.159,0.216,0.138,0.054,0.025,-0.004,-0.141,0.038
'0:00.878',-0.057,-0.333,-0.276,0.195,0.110,-0.304,-0.021,0.163,0.221,0.138,0.053,0.025,-0.004,-0.133,0.039
'0:00.879',-0.050,-0.342,-0.293,0.196,0.122,-0.318,-0.027,0.161,0.217,0.132,0.046,0.018,-0.009,-0.138,0.037
'0:00.880',-0.038,-0.349,-0.311,0.194,0.137,-0.331,-0.026,0.164,0.221,0.131,0.040,0.017,-0.007,-0.144,0.038
'0:00.881',-0.042,-0.347,-0.305,0.195,0.132,-0.326,-0.016,0.179,0.233,0.140,0.046,0.022,-0.006,-0.154,0.041
'0:00.882',-0.021,-0.340,-0.318,0.180,0.148,-0.329,-0.018,0.185,0.236,0.139,0.043,0.020,-0.004,-0.166,0.041
'0:00.883',0.025,-0.327,-0.351,0.150,0.189,-0.339,-0.021,0.186,0.236,0.137,0.038,0.017,-0.003,-0.169,0.044
'0:00.884',0.017,-0.329,-0.345,0.156,0.181,-0.337,-0.011,0.197,0.249,0.144,0.041,0.019,-0.004,-0.173,0.042
'0:00.885',-0.017,-0.350,-0.334,0.183,0.159,-0.342,-0.008,0.203,0.255,0.146,0.037,0.018,-0.004,-0.175,0.043
'0:00.886',-0.038,-0.359,-0.322,0.199,0.142,-0.341,-0.004,0.214,0.266,0.155,0.043,0.021,-0.003,-0.173,0.046
'0:00.887',-0.037,-0.369,-0.333,0.203,0.148,-0.351,-0.007,0.214,0.265,0.146,0.032,0.018,-0.003,-0.183,0.047
'0:00.888',-0.013,-0.373,-0.361,0.193,0.174,-0.367,-0.011,0.212,0.263,0.140,0.021,0.011,-0.001,-0.187,0.046
'0:00.889',0.015,-0.366,-0.380,0.175,0.198,-0.373,-0.013,0.216,0.268,0.143,0.022,0.006,0.001,-0.185,0.045
'0:00.890',0.009,-0.366,-0.376,0.178,0.193,-0.371,-0.015,0.221,0.271,0.143,0.018,0.003,0.001,-0.194,0.045
'0:00.891',0.004,-0.362,-0.366,0.179,0.185,-0.364,-0.007,0.230,0.279,0.148,0.024,0.006,-0.002,-0.192,0.044
'0:00.892',0.000,-0.361,-0.361,0.181,0.181,-0.362,-0.001,0.239,0.288,0.155,0.028,0.008,-0.001,-0.190,0.045
'0:00.893',-0.004,-0.362,-0.358,0.183,0.178,-0.361,0.003,0.247,0.295,0.161,0.029,0.009,0.000,-0.190,0.045
'0:00.894',-0.004,-0.361,-0.357,0.182,0.177,-0.359,0.004,0.252,0.298,0.162,0.029,0.009,-0.001,-0.193,0.045
'0:00.895',-0.003,-0.361,-0.358,0.182,0.178,-0.360,0.007,0.261,0.305,0.164,0.029,0.008,0.001,-0.195,0.045
'0:00.896',0.001,-0.365,-0.366,0.182,0.183,-0.366,0.006,0.263,0.308,0.163,0.025,0.004,0.001,-0.195,0.045
'0:00.897',0.005,-0.363,-0.368,0.179,0.187,-0.366,0.009,0.268,0.313,0.165,0.025,0.003,0.001,-0.197,0.045
'0:00.898',0.008,-0.361,-0.369,0.176,0.189,-0.365,0.014,0.278,0.321,0.169,0.026,0.004,0.002,-0.196,0.044
'0:00.899',0.007,-0.365,-0.373,0.179,0.191,-0.369,0.015,0.284,0.326,0.170,0.025,0.003,0.001,-0.201,0.044
'0:00.900',0.027,-0.364,-0.391,0.169,0.209,-0.378,0.018,0.291,0.332,0.172,0.026,0.003,0.002,-0.201,0.043
'0:00.901',0.029,-0.361,-0.391,0.166,0.210,-0.377,0.021,0.294,0.338,0.175,0.027,0.002,0.004,-0.203,0.045
'0:00.902',0.041,-0.355,-0.397,0.158,0.218,-0.377,0.025,0.300,0.344,0.178,0.028,0.004,0.004,-0.205,0.046
'0:00.903',0.040,-0.360,-0.400,0.160,0.220,-0.380,0.028,0.307,0.350,0.181,0.028,0.003,0.004,-0.204,0.046
'0:00.904',0.027,-0.381,-0.407,0.177,0.217,-0.395,0.023,0.306,0.347,0.176,0.022,-0.008,0.002,-0.204,0.044
'0:00.905',0.020,-0.390,-0.410,0.185,0.215,-0.401,0.022,0.308,0.348,0.177,0.021,-0.009,0.002,-0.206,0.046
'0:00.906',0.008,-0.388,-0.396,0.190,0.203,-0.392,0.029,0.317,0.359,0.182,0.023,-0.001,0.005,-0.207,0.048
'0:00.907',0.025,-0.388,-0.413,0.181,0.220,-0.401,0.026,0.317,0.359,0.179,0.019,-0.007,0.004,-0.210,0.046
'0:00.908',0.029,-0.387,-0.415,0.179,0.223,-0.402,0.029,0.322,0.363,0.182,0.021,-0.007,0.004,-0.213,0.046
'0:00.909',0.034,-0.384,-0.418,0.175,0.226,-0.401,0.032,0.326,0.367,0.184,0.019,-0.006,0.005,-0.210,0.044
'0:00.910',0.038,-0.386,-0.424,0.174,0.232,-0.406,0.026,0.323,0.364,0.180,0.014,-0.012,0.006,-0.212,0.043
'0:00.911',0.040,-0.382,-0.421,0.172,0.231,-0.402,0.026,0.328,0.368,0.182,0.015,-0.013,0.005,-0.206,0.041
'0:00.912',0.034,-0.380,-0.414,0.173,0.224,-0.398,0.032,0.333,0.373,0.185,0.018,-0.011,0.004,-0.199,0.038
'0:00.913',0.010,-0.380,-0.389,0.185,0.200,-0.385,0.042,0.344,0.384,0.193,0.025,-0.004,0.004,-0.207,0.038
'0:00.914',0.004,-0.379,-0.384,0.188,0.195,-0.382,0.045,0.348,0.392,0.198,0.027,-0.005,0.003,-0.220,0.036
'0:00.915',0.012,-0.380,-0.392,0.184,0.203,-0.387,0.044,0.348,0.390,0.195,0.025,-0.009,0.004,-0.218,0.035
'0:00.916',0.008,-0.376,-0.384,0.184,0.196,-0.380,0.048,0.355,0.394,0.198,0.028,-0.004,0.004,-0.211,0.035
'0:00.917',0.021,-0.373,-0.394,0.176,0.207,-0.384,0.047,0.354,0.394,0.195,0.024,-0.008,0.005,-0.203,0.034
'0:00.918',0.058,-0.369,-0.427,0.155,0.243,-0.398,0.038,0.347,0.385,0.186,0.013,-0.018,0.006,-0.203,0.033
'0:00.919',0.051,-0.367,-0.418,0.158,0.235,-0.393,0.045,0.352,0.392,0.192,0.018,-0.015,0.005,-0.208,0.033
'0:00.920',0.045,-0.370,-0.415,0.162,0.231,-0.393,0.052,0.358,0.396,0.196,0.022,-0.011,0.004,-0.200,0.030
'0:00.921',0.071,-0.371,-0.443,0.150,0.258,-0.407,0.046,0.353,0.389,0.186,0.015,-0.019,0.003,-0.200,0.029
'0:00.922',0.070,-0.354,-0.424,0.142,0.247,-0.390,0.060,0.364,0.402,0.198,0.026,-0.009,0.004,-0.201,0.030
'0:00.923',0.059,-0.344,-0.404,0.143,0.232,-0.374,0.071,0.378,0.413,0.209,0.037,0.002,0.005,-0.203,0.029
'0:00.924',0.045,-0.369,-0.415,0.163,0.231,-0.393,0.062,0.371,0.405,0.199,0.027,-0.007,0.005,-0.212,0.028
'0:00.925',0.027,-0.381,-0.407,0.177,0.217,-0.395,0.065,0.374,0.406,0.201,0.026,-0.005,0.006,-0.209,0.026
'0:00.926',0.029,-0.376,-0.405,0.173,0.217,-0.391,0.069,0.378,0.409,0.204,0.029,-0.004,0.004,-0.204,0.026
'0:00.927',0.041,-0.389,-0.429,0.174,0.235,-0.409,0.058,0.363,0.399,0.191,0.018,-0.018,0.003,-0.200,0.025
'0:00.928',0.040,-0.388,-0.426,0.174,0.233,-0.407,0.061,0.368,0.402,0.195,0.022,-0.015,0.003,-0.201,0.022
'0:00.929',0.033,-0.377,-0.409,0.172,0.222,-0.393,0.072,0.379,0.410,0.203,0.030,-0.007,0.004,-0.204,0.020
'0:00.930',0.044,-0.365,-0.409,0.161,0.227,-0.387,0.073,0.379,0.409,0.201,0.028,-0.009,0.004,-0.198,0.018
'0:00.931',0.045,-0.361,-0.407,0.158,0.227,-0.385,0.071,0.377,0.408,0.200,0.025,-0.011,0.003,-0.193,0.017
'0:00.932',0.036,-0.361,-0.397,0.163,0.217,-0.380,0.074,0.378,0.406,0.202,0.026,-0.009,0.002,-0.190,0.014
'0:00.933',0.030,-0.361,-0.392,0.166,0.211,-0.377,0.077,0.379,0.406,0.201,0.027,-0.009,0.003,-0.190,0.013
'0:00.934',0.004,-0.372,-0.377,0.184,0.191,-0.375,0.076,0.375,0.404,0.199,0.026,-0.011,0.002,-0.192,0.013
'0:00.935',-0.001,-0.364,-0.364,0.182,0.182,-0.364,0.085,0.379,0.408,0.204,0.032,-0.004,0.002,-0.191,0.011
'0:00.936',0.015,-0.361,-0.376,0.173,0.196,-0.369,0.084,0.373,0.403,0.200,0.029,-0.007,0.001,-0.182,0.009
'0:00.937',0.021,-0.356,-0.378,0.168,0.200,-0.367,0.082,0.372,0.399,0.198,0.029,-0.010,0.001,-0.173,0.006
'0:00.938',0.025,-0.340,-0.364,0.158,0.195,-0.352,0.090,0.381,0.407,0.205,0.036,-0.002,0.001,-0.175,0.005
'0:00.939',0.033,-0.334,-0.366,0.150,0.200,-0.350,0.094,0.381,0.407,0.207,0.040,0.000,-0.001,-0.177,0.004
'0:00.940',0.035,-0.342,-0.377,0.153,0.207,-0.359,0.092,0.377,0.404,0.204,0.038,-0.001,0.000,-0.176,0.002
'0:00.941',0.025,-0.352,-0.377,0.164,0.201,-0.365,0.094,0.374,0.402,0.203,0.038,-0.002,0.000,-0.176,0.002
'0:00.942',0.025,-0.351,-0.377,0.164,0.201,-0.364,0.098,0.374,0.400,0.203,0.039,0.000,-0.001,-0.174,-0.001
'0:00.943',0.022,-0.347,-0.370,0.163,0.197,-0.359,0.101,0.376,0.400,0.205,0.040,0.004,-0.001,-0.172,-0.003
'0:00.944',0.019,-0.345,-0.364,0.163,0.192,-0.355,0.102,0.376,0.400,0.205,0.043,0.005,-0.001,-0.171,-0.004
'0:00.945',0.021,-0.343,-0.365,0.161,0.194,-0.354,0.102,0.374,0.399,0.205,0.045,0.006,-0.001,-0.171,-0.006
'0:00.946',0.017,-0.341,-0.357,0.162,0.187,-0.349,0.106,0.374,0.399,0.204,0.046,0.008,-0.002,-0.166,-0.007
'0:00.947',0.019,-0.340,-0.359,0.161,0.189,-0.349,0.108,0.370,0.393,0.202,0.043,0.005,-0.003,-0.162,-0.007
'0:00.948',0.026,-0.332,-0.358,0.153,0.192,-0.345,0.113,0.372,0.395,0.205,0.045,0.009,-0.004,-0.165,-0.011
'0:00.949',0.017,-0.332,-0.348,0.158,0.183,-0.341,0.115,0.373,0.394,0.205,0.047,0.013,-0.004,-0.161,-0.013
'0:00.950',-0.021,-0.337,-0.316,0.179,0.147,-0.327,0.118,0.373,0.392,0.206,0.050,0.015,-0.005,-0.153,-0.015
'0:00.951',-0.013,-0.334,-0.322,0.173,0.154,-0.328,0.117,0.369,0.388,0.203,0.048,0.011,-0.006,-0.150,-0.017
'0:00.952',0.008,-0.331,-0.339,0.161,0.173,-0.335,0.113,0.360,0.378,0.197,0.042,0.004,-0.007,-0.150,-0.017
'0:00.953',-0.011,-0.325,-0.314,0.168,0.152,-0.320,0.120,0.365,0.382,0.203,0.049,0.011,-0.009,-0.148,-0.018
'0:00.954',-0.017,-0.332,-0.315,0.174,0.149,-0.324,0.117,0.355,0.373,0.196,0.045,0.006,-0.010,-0.143,-0.019
'0:00.955',-0.028,-0.336,-0.308,0.181,0.141,-0.322,0.113,0.349,0.367,0.192,0.044,0.004,-0.011,-0.137,-0.022
'0:00.956',-0.034,-0.331,-0.297,0.182,0.132,-0.314,0.114,0.351,0.369,0.195,0.050,0.007,-0.011,-0.133,-0.025
'0:00.957',-0.028,-0.328,-0.300,0.178,0.136,-0.314,0.117,0.344,0.361,0.190,0.045,0.005,-0.011,-0.132,-0.025
'0:00.958',-0.030,-0.322,-0.292,0.176,0.131,-0.307,0.123,0.344,0.360,0.192,0.048,0.009,-0.013,-0.128,-0.026
'0:00.959',-0.034,-0.322,-0.288,0.177,0.128,-0.305,0.122,0.345,0.359,0.194,0.052,0.013,-0.011,-0.121,-0.026
'0:00.960',-0.030,-0.319,-0.288,0.174,0.129,-0.303,0.126,0.346,0.357,0.193,0.055,0.017,-0.011,-0.126,-0.027
'0:00.961',-0.034,-0.318,-0.284,0.175,0.126,-0.301,0.128,0.342,0.353,0.191,0.056,0.017,-0.013,-0.118,-0.028
'0:00.962',-0.034,-0.315,-0.280,0.174,0.123,-0.297,0.128,0.338,0.349,0.190,0.056,0.017,-0.013,-0.105,-0.029
'0:00.963',-0.033,-0.313,-0.280,0.173,0.123,-0.296,0.132,0.341,0.349,0.192,0.059,0.021,-0.012,-0.115,-0.030
'0:00.964',-0.034,-0.320,-0.286,0.177,0.126,-0.303,0.130,0.334,0.343,0.188,0.056,0.021,-0.011,-0.121,-0.032
'0:00.965',-0.032,-0.312,-0.281,0.172,0.124,-0.297,0.134,0.334,0.342,0.190,0.059,0.026,-0.013,-0.112,-0.035
'0:00.966',-0.033,-0.314,-0.281,0.173,0.124,-0.297,0.135,0.330,0.337,0.187,0.060,0.026,-0.013,-0.108,-0.035
'0:00.967',-0.048,-0.330,-0.282,0.189,0.117,-0.306,0.131,0.321,0.330,0.180,0.057,0.024,-0.013,-0.114,-0.034
'0:00.968',-0.051,-0.322,-0.271,0.186,0.110,-0.296,0.139,0.325,0.333,0.184,0.062,0.030,-0.013,-0.103,-0.036
'0:00.969',-0.041,-0.309,-0.269,0.175,0.114,-0.289,0.140,0.321,0.331,0.185,0.065,0.032,-0.013,-0.097,-0.038
'0:00.970',-0.051,-0.306,-0.255,0.178,0.102,-0.281,0.142,0.320,0.328,0.186,0.068,0.033,-0.013,-0.098,-0.038
'0:00.971',-0.059,-0.300,-0.241,0.179,0.091,-0.271,0.145,0.319,0.327,0.189,0.071,0.036,-0.015,-0.092,-0.041
'0:00.972',-0.054,-0.297,-0.243,0.175,0.095,-0.271,0.147,0.314,0.323,0.186,0.072,0.035,-0.017,-0.086,-0.042
'0:00.973',-0.059,-0.289,-0.230,0.174,0.086,-0.260,0.152,0.317,0.324,0.188,0.076,0.035,-0.020,-0.079,-0.043
'0:00.974',-0.089,-0.296,-0.207,0.193,0.059,-0.252,0.152,0.314,0.321,0.188,0.077,0.032,-0.024,-0.085,-0.043
'0:00.975',-0.098,-0.308,-0.210,0.203,0.057,-0.260,0.143,0.301,0.308,0.177,0.069,0.024,-0.025,-0.082,-0.045
'0:00.976',-0.070,-0.292,-0.222,0.181,0.076,-0.258,0.142,0.295,0.304,0.176,0.069,0.025,-0.025,-0.070,-0.048
'0:00.977',-0.059,-0.278,-0.219,0.168,0.081,-0.248,0.150,0.295,0.304,0.179,0.074,0.032,-0.024,-0.065,-0.049
'0:00.978',-0.060,-0.270,-0.209,0.165,0.075,-0.240,0.153,0.293,0.305,0.181,0.079,0.036,-0.024,-0.067,-0.046
'0:00.979',-0.042,-0.257,-0.215,0.149,0.087,-0.236,0.155,0.292,0.305,0.181,0.081,0.042,-0.023,-0.067,-0.044
'0:00.980',-0.069,-0.288,-0.219,0.178,0.075,-0.254,0.151,0.281,0.292,0.172,0.070,0.035,-0.023,-0.077,-0.046
'0:00.981',-0.098,-0.310,-0.213,0.204,0.058,-0.262,0.146,0.274,0.284,0.168,0.067,0.032,-0.024,-0.080,-0.048
'0:00.982',-0.084,-0.297,-0.213,0.191,0.065,-0.256,0.148,0.271,0.282,0.168,0.070,0.035,-0.022,-0.066,-0.048
'0:00.983',-0.069,-0.282,-0.214,0.175,0.072,-0.248,0.151,0.271,0.281,0.170,0.074,0.040,-0.022,-0.064,-0.048
'0:00.984',-0.056,-0.266,-0.210,0.161,0.078,-0.238,0.155,0.272,0.284,0.175,0.086,0.046,-0.022,-0.066,-0.049
'0:00.985',-0.081,-0.288,-0.207,0.184,0.064,-0.248,0.150,0.262,0.276,0.170,0.082,0.043,-0.022,-0.067,-0.053
'0:00.986',-0.049,-0.270,-0.221,0.160,0.086,-0.245,0.152,0.261,0.273,0.168,0.082,0.045,-0.024,-0.069,-0.055
'0:00.987',-0.033,-0.253,-0.220,0.143,0.093,-0.236,0.159,0.262,0.278,0.175,0.092,0.051,-0.025,-0.072,-0.055
'0:00.988',-0.077,-0.287,-0.210,0.182,0.067,-0.249,0.151,0.250,0.263,0.166,0.083,0.043,-0.028,-0.065,-0.057
'0:00.989',-0.091,-0.292,-0.201,0.192,0.055,-0.247,0.148,0.243,0.253,0.161,0.080,0.040,-0.027,-0.058,-0.059
'0:00.990',-0.099,-0.281,-0.183,0.190,0.043,-0.232,0.150,0.240,0.255,0.163,0.086,0.045,-0.028,-0.059,-0.060
'0:00.991',-0.098,-0.275,-0.176,0.186,0.040,-0.226,0.154,0.241,0.255,0.165,0.090,0.051,-0.028,-0.053,-0.061
'0:00.992',-0.098,-0.269,-0.171,0.183,0.037,-0.221,0.157,0.238,0.252,0.167,0.093,0.054,-0.029,-0.049,-0.061
'0:00.993',-0.091,-0.269,-0.178,0.179,0.044,-0.224,0.149,0.228,0.243,0.159,0.088,0.049,-0.030,-0.049,-0.062
'0:00.994',-0.098,-0.266,-0.168,0.181,0.035,-0.217,0.150,0.225,0.241,0.160,0.089,0.050,-0.030,-0.042,-0.061
'0:00.995',-0.098,-0.258,-0.160,0.178,0.031,-0.208,0.152,0.220,0.238,0.160,0.092,0.052,-0.030,-0.035,-0.061
'0:00.996',-0.089,-0.258,-0.168,0.173,0.040,-0.213,0.148,0.213,0.234,0.157,0.091,0.052,-0.029,-0.035,-0.062
'0:00.997',-0.086,-0.254,-0.168,0.170,0.041,-0.211,0.145,0.209,0.233,0.156,0.091,0.055,-0.028,-0.033,-0.062
'0:00.998',-0.099,-0.257,-0.158,0.178,0.029,-0.208,0.144,0.203,0.229,0.154,0.092,0.057,-0.027,-0.032,-0.062
'0:00.999',-0.113,-0.257,-0.144,0.185,0.017,-0.201,0.154,0.205,0.231,0.160,0.099,0.061,-0.028,-0.028,-0.064
'0:01.000',-0.105,-0.257,-0.151,0.181,0.023,-0.204,0.153,0.205,0.229,0.160,0.100,0.062,-0.029,-0.032,-0.065
'0:01.001',-0.108,-0.261,-0.152,0.184,0.022,-0.207,0.142,0.198,0.223,0.157,0.100,0.061,-0.028,-0.030,-0.066
'0:01.002',-0.096,-0.251,-0.154,0.173,0.029,-0.203,0.142,0.192,0.220,0.158,0.102,0.064,-0.026,-0.023,-0.066
'0:01.003',-0.092,-0.250,-0.158,0.171,0.033,-0.204,0.144,0.191,0.218,0.159,0.105,0.068,-0.025,-0.029,-0.066
'0:01.004',-0.097,-0.252,-0.155,0.174,0.029,-0.204,0.144,0.192,0.217,0.158,0.108,0.070,-0.026,-0.025,-0.067
'0:01.005',-0.093,-0.257,-0.163,0.174,0.035,-0.210,0.140,0.186,0.211,0.152,0.106,0.066,-0.027,-0.022,-0.068
'0:01.006',-0.092,-0.260,-0.168,0.176,0.038,-0.213,0.136,0.176,0.205,0.149,0.103,0.063,-0.028,-0.024,-0.069
'0:01.007',-0.105,-0.259,-0.154,0.182,0.025,-0.207,0.141,0.179,0.208,0.154,0.112,0.067,-0.030,-0.025,-0.068
'0:01.008',-0.113,-0.260,-0.148,0.186,0.018,-0.204,0.143,0.183,0.209,0.157,0.116,0.072,-0.029,-0.025,-0.069
'0:01.009',-0.109,-0.253,-0.143,0.180,0.018,-0.198,0.146,0.181,0.209,0.158,0.117,0.074,-0.029,-0.021,-0.070
'0:01.010',-0.110,-0.251,-0.141,0.180,0.016,-0.196,0.141,0.174,0.204,0.153,0.114,0.071,-0.030,-0.017,-0.070
'0:01.011',-0.103,-0.251,-0.147,0.176,0.022,-0.199,0.139,0.170,0.200,0.147,0.109,0.068,-0.031,-0.012,-0.072
'0:01.012',-0.113,-0.246,-0.133,0.180,0.010,-0.190,0.144,0.173,0.203,0.152,0.115,0.072,-0.032,-0.013,-0.071
'0:01.013',-0.118,-0.249,-0.131,0.184,0.006,-0.190,0.140,0.166,0.198,0.148,0.111,0.071,-0.033,-0.014,-0.069
'0:01.014',-0.120,-0.251,-0.131,0.185,0.006,-0.191,0.135,0.160,0.193,0.143,0.106,0.068,-0.034,-0.006,-0.068
'0:01.015',-0.126,-0.247,-0.121,0.186,-0.002,-0.184,0.137,0.162,0.192,0.144,0.108,0.070,-0.033,0.003,-0.067
'0:01.016',-0.130,-0.248,-0.118,0.189,-0.005,-0.183,0.137,0.158,0.190,0.143,0.109,0.070,-0.033,-0.001,-0.065
'0:01.017',-0.135,-0.242,-0.107,0.189,-0.013,-0.175,0.137,0.159,0.191,0.147,0.112,0.073,-0.032,-0.006,-0.067
'0:01.018',-0.129,-0.239,-0.112,0.184,-0.009,-0.176,0.133,0.154,0.188,0.146,0.109,0.070,-0.033,-0.011,-0.067
'0:01.019',-0.112,-0.241,-0.130,0.176,0.009,-0.186,0.128,0.146,0.181,0.141,0.106,0.065,-0.035,-0.005,-0.066
'0:01.020',-0.117,-0.241,-0.125,0.179,0.004,-0.183,0.135,0.149,0.183,0.145,0.109,0.069,-0.035,-0.005,-0.067
'0:01.021',-0.126,-0.243,-0.118,0.184,-0.004,-0.181,0.134,0.149,0.183,0.146,0.110,0.071,-0.035,0.000,-0.066
'0:01.022',-0.122,-0.241,-0.119,0.181,-0.001,-0.180,0.130,0.145,0.180,0.145,0.111,0.071,-0.033,0.009,-0.067
'0:01.023',-0.126,-0.245,-0.119,0.185,-0.003,-0.182,0.131,0.142,0.181,0.146,0.113,0.073,-0.033,0.004,-0.068
'0:01.024',-0.130,-0.249,-0.119,0.190,-0.005,-0.184,0.130,0.141,0.181,0.148,0.114,0.073,-0.033,0.002,-0.070
'0:01.025',-0.118,-0.247,-0.130,0.182,0.006,-0.189,0.128,0.137,0.177,0.147,0.113,0.073,-0.032,-0.009,-0.072
'0:01.026',-0.104,-0.248,-0.144,0.176,0.020,-0.197,0.123,0.134,0.174,0.142,0.108,0.070,-0.033,-0.010,-0.074
'0:01.027',-0.124,-0.256,-0.132,0.190,0.004,-0.195,0.127,0.132,0.174,0.144,0.111,0.070,-0.034,-0.007,-0.071
'0:01.028',-0.142,-0.265,-0.123,0.203,-0.009,-0.195,0.128,0.131,0.175,0.143,0.114,0.071,-0.035,-0.010,-0.070
'0:01.029',-0.130,-0.254,-0.124,0.192,-0.003,-0.189,0.126,0.129,0.173,0.143,0.114,0.071,-0.033,-0.005,-0.071
'0:01.030',-0.132,-0.242,-0.110,0.187,-0.011,-0.176,0.129,0.133,0.175,0.147,0.119,0.076,-0.034,-0.008,-0.072
'0:01.031',-0.133,-0.246,-0.114,0.189,-0.009,-0.180,0.125,0.132,0.172,0.144,0.117,0.076,-0.033,-0.007,-0.073
'0:01.032',-0.122,-0.239,-0.117,0.181,-0.003,-0.178,0.123,0.128,0.170,0.144,0.115,0.075,-0.034,0.009,-0.072
'0:01.033',-0.153,-0.244,-0.091,0.199,-0.031,-0.168,0.129,0.133,0.176,0.150,0.122,0.080,-0.035,0.013,-0.074
'0:01.034',-0.175,-0.241,-0.066,0.208,-0.054,-0.154,0.132,0.135,0.179,0.154,0.126,0.086,-0.034,0.021,-0.075
'0:01.035',-0.172,-0.234,-0.061,0.203,-0.056,-0.147,0.130,0.132,0.175,0.151,0.122,0.085,-0.035,0.027,-0.075
'0:01.036',-0.168,-0.233,-0.066,0.200,-0.051,-0.149,0.124,0.130,0.172,0.147,0.118,0.084,-0.035,0.019,-0.072
'0:01.037',-0.175,-0.225,-0.049,0.200,-0.063,-0.137,0.131,0.135,0.178,0.150,0.122,0.094,-0.036,0.017,-0.070
'0:01.038',-0.169,-0.230,-0.061,0.199,-0.053,-0.145,0.124,0.128,0.171,0.141,0.115,0.088,-0.036,0.015,-0.070
'0:01.039',-0.146,-0.241,-0.095,0.194,-0.025,-0.168,0.111,0.114,0.157,0.128,0.102,0.073,-0.037,0.020,-0.071
'0:01.040',-0.136,-0.234,-0.099,0.185,-0.018,-0.167,0.116,0.117,0.161,0.133,0.106,0.075,-0.036,0.015,-0.074
'0:01.041',-0.145,-0.228,-0.083,0.187,-0.031,-0.156,0.122,0.123,0.168,0.140,0.114,0.080,-0.037,0.016,-0.073
'0:01.042',-0.153,-0.234,-0.082,0.194,-0.035,-0.159,0.120,0.118,0.164,0.137,0.112,0.076,-0.036,0.018,-0.074
'0:01.043',-0.148,-0.234,-0.086,0.191,-0.031,-0.160,0.118,0.117,0.162,0.139,0.112,0.077,-0.036,0.021,-0.074
'0:01.044',-0.166,-0.243,-0.078,0.204,-0.043,-0.161,0.113,0.115,0.158,0.136,0.110,0.076,-0.035,0.024,-0.075
'0:01.045',-0.162,-0.252,-0.089,0.206,-0.036,-0.171,0.108,0.108,0.152,0.131,0.106,0.070,-0.035,0.019,-0.076
'0:01.046',-0.152,-0.243,-0.091,0.198,-0.030,-0.168,0.113,0.109,0.152,0.130,0.105,0.072,-0.035,0.021,-0.076
'0:01.047',-0.166,-0.236,-0.070,0.202,-0.048,-0.154,0.119,0.116,0.159,0.137,0.114,0.082,-0.036,0.016,-0.074
'0:01.048',-0.153,-0.235,-0.083,0.195,-0.035,-0.159,0.117,0.116,0.160,0.141,0.114,0.081,-0.037,0.017,-0.075
'0:01.049',-0.131,-0.230,-0.099,0.180,-0.016,-0.164,0.112,0.107,0.155,0.136,0.108,0.076,-0.035,0.020,-0.076
'0:01.050',-0.153,-0.229,-0.076,0.191,-0.038,-0.153,0.114,0.110,0.157,0.138,0.114,0.081,-0.034,0.015,-0.075
'0:01.051',-0.173,-0.240,-0.067,0.207,-0.053,-0.153,0.110,0.111,0.155,0.139,0.113,0.080,-0.036,0.021,-0.078
'0:01.052',-0.167,-0.234,-0.068,0.200,-0.050,-0.150,0.112,0.112,0.157,0.141,0.115,0.082,-0.035,0.024,-0.079
'0:01.053',-0.155,-0.228,-0.073,0.192,-0.041,-0.151,0.111,0.112,0.154,0.137,0.113,0.080,-0.037,0.017,-0.079
'0:01.054',-0.159,-0.227,-0.068,0.193,-0.045,-0.147,0.111,0.109,0.154,0.136,0.112,0.080,-0.038,0.028,-0.080
'0:01.055',-0.174,-0.232,-0.058,0.203,-0.058,-0.144,0.110,0.106,0.153,0.135,0.109,0.074,-0.041,0.037,-0.078
'0:01.056',-0.176,-0.233,-0.056,0.204,-0.060,-0.144,0.105,0.104,0.151,0.132,0.105,0.067,-0.046,0.036,-0.079
'0:01.057',-0.162,-0.222,-0.060,0.192,-0.051,-0.141,0.107,0.103,0.152,0.132,0.107,0.069,-0.044,0.030,-0.081
'0:01.058',-0.166,-0.221,-0.055,0.193,-0.055,-0.138,0.108,0.105,0.152,0.133,0.108,0.070,-0.044,0.029,-0.079
'0:01.059',-0.174,-0.226,-0.051,0.201,-0.061,-0.139,0.108,0.105,0.153,0.135,0.109,0.072,-0.043,0.033,-0.077
'0:01.060',-0.174,-0.234,-0.060,0.204,-0.057,-0.147,0.104,0.102,0.149,0.132,0.106,0.071,-0.043,0.032,-0.077
'0:01.061',-0.172,-0.233,-0.060,0.203,-0.056,-0.146,0.101,0.099,0.145,0.130,0.106,0.071,-0.042,0.035,-0.077
'0:01.062',-0.172,-0.231,-0.060,0.202,-0.056,-0.146,0.102,0.099,0.145,0.130,0.110,0.073,-0.041,0.036,-0.077
'0:01.063',-0.175,-0.227,-0.051,0.201,-0.061,-0.140,0.105,0.104,0.151,0.134,0.114,0.078,-0.041,0.040,-0.078
'0:01.064',-0.148,-0.215,-0.067,0.182,-0.041,-0.141,0.103,0.104,0.152,0.135,0.114,0.081,-0.038,0.037,-0.076
'0:01.065',-0.143,-0.224,-0.081,0.183,-0.031,-0.152,0.101,0.101,0.147,0.133,0.112,0.078,-0.038,0.040,-0.076
'0:01.066',-0.158,-0.231,-0.073,0.195,-0.042,-0.152,0.095,0.097,0.142,0.130,0.111,0.075,-0.038,0.040,-0.077
'0:01.067',-0.161,-0.231,-0.070,0.196,-0.045,-0.150,0.094,0.095,0.142,0.130,0.113,0.074,-0.040,0.033,-0.077
'0:01.068',-0.169,-0.233,-0.064,0.201,-0.052,-0.148,0.097,0.098,0.144,0.135,0.118,0.077,-0.040,0.034,-0.079
'0:01.069',-0.172,-0.233,-0.060,0.202,-0.056,-0.147,0.097,0.099,0.142,0.133,0.119,0.079,-0.041,0.032,-0.080
'0:01.070',-0.174,-0.230,-0.056,0.203,-0.059,-0.143,0.097,0.099,0.141,0.133,0.119,0.078,-0.041,0.039,-0.081
'0:01.071',-0.172,-0.231,-0.059,0.202,-0.057,-0.145,0.097,0.099,0.142,0.132,0.120,0.080,-0.041,0.040,-0.081
'0:01.072',-0.178,-0.231,-0.053,0.204,-0.062,-0.142,0.096,0.100,0.140,0.129,0.119,0.079,-0.043,0.045,-0.081
'0:01.073',-0.182,-0.229,-0.046,0.205,-0.068,-0.138,0.096,0.099,0.140,0.129,0.120,0.080,-0.043,0.047,-0.081
'0:01.074',-0.181,-0.228,-0.047,0.205,-0.067,-0.138,0.096,0.097,0.141,0.128,0.120,0.081,-0.041,0.040,-0.080
'0:01.075',-0.184,-0.228,-0.043,0.206,-0.070,-0.136,0.098,0.096,0.139,0.126,0.118,0.080,-0.043,0.043,-0.079
'0:01.076',-0.185,-0.227,-0.042,0.205,-0.071,-0.134,0.100,0.098,0.141,0.130,0.119,0.083,-0.043,0.041,-0.079
'0:01.077',-0.171,-0.211,-0.041,0.192,-0.065,-0.127,0.102,0.101,0.144,0.132,0.122,0.086,-0.043,0.048,-0.080
'0:01.078',-0.165,-0.210,-0.045,0.188,-0.059,-0.128,0.097,0.094,0.139,0.127,0.119,0.081,-0.044,0.046,-0.077
'0:01.079',-0.175,-0.222,-0.046,0.199,-0.064,-0.135,0.095,0.091,0.140,0.127,0.118,0.081,-0.044,0.038,-0.077
'0:01.080',-0.175,-0.225,-0.050,0.200,-0.062,-0.138,0.098,0.093,0.141,0.129,0.119,0.083,-0.043,0.042,-0.078
'0:01.081',-0.172,-0.223,-0.051,0.197,-0.060,-0.137,0.097,0.091,0.141,0.129,0.119,0.083,-0.044,0.038,-0.078
'0:01.082',-0.172,-0.222,-0.050,0.197,-0.060,-0.136,0.096,0.092,0.141,0.129,0.119,0.085,-0.043,0.035,-0.079
'0:01.083',-0.179,-0.234,-0.056,0.207,-0.062,-0.145,0.092,0.089,0.136,0.124,0.115,0.082,-0.043,0.031,-0.076
'0:01.084',-0.177,-0.234,-0.057,0.206,-0.060,-0.145,0.096,0.091,0.139,0.127,0.117,0.084,-0.042,0.029,-0.076
'0:01.085',-0.168,-0.226,-0.058,0.197,-0.054,-0.142,0.098,0.092,0.141,0.131,0.120,0.088,-0.041,0.032,-0.078
'0:01.086',-0.163,-0.223,-0.060,0.193,-0.051,-0.141,0.095,0.089,0.141,0.133,0.123,0.090,-0.039,0.030,-0.080
'0:01.087',-0.151,-0.210,-0.059,0.181,-0.045,-0.136,0.100,0.094,0.146,0.139,0.128,0.096,-0.040,0.029,-0.081
'0:01.088',-0.154,-0.214,-0.059,0.184,-0.048,-0.137,0.099,0.092,0.146,0.139,0.130,0.094,-0.042,0.026,-0.082
'0:01.089',-0.169,-0.224,-0.054,0.197,-0.057,-0.140,0.096,0.090,0.144,0.139,0.129,0.092,-0.040,0.032,-0.084
'0:01.090',-0.154,-0.206,-0.052,0.180,-0.051,-0.130,0.098,0.093,0.148,0.142,0.133,0.096,-0.038,0.046,-0.087
'0:01.091',-0.165,-0.215,-0.051,0.190,-0.057,-0.133,0.094,0.092,0.146,0.140,0.129,0.091,-0.040,0.048,-0.088
'0:01.092',-0.190,-0.236,-0.047,0.213,-0.071,-0.142,0.087,0.085,0.139,0.130,0.118,0.083,-0.042,0.048,-0.086
'0:01.093',-0.189,-0.233,-0.043,0.211,-0.073,-0.138,0.086,0.081,0.137,0.126,0.114,0.082,-0.043,0.044,-0.085
'0:01.094',-0.179,-0.220,-0.040,0.200,-0.070,-0.130,0.087,0.083,0.137,0.128,0.115,0.085,-0.043,0.046,-0.084
'0:01.095',-0.170,-0.201,-0.032,0.185,-0.069,-0.117,0.092,0.088,0.141,0.133,0.120,0.092,-0.043,0.051,-0.082
'0:01.096',-0.191,-0.211,-0.021,0.201,-0.085,-0.117,0.093,0.087,0.141,0.133,0.122,0.091,-0.044,0.044,-0.083
'0:01.097',-0.183,-0.214,-0.031,0.199,-0.075,-0.123,0.088,0.080,0.135,0.129,0.117,0.088,-0.041,0.048,-0.083
'0:01.098',-0.182,-0.217,-0.036,0.200,-0.072,-0.127,0.082,0.076,0.130,0.126,0.115,0.085,-0.041,0.049,-0.082
'0:01.099',-0.185,-0.221,-0.035,0.203,-0.074,-0.128,0.082,0.076,0.130,0.127,0.117,0.085,-0.042,0.049,-0.081
'0:01.100',-0.181,-0.221,-0.040,0.201,-0.070,-0.131,0.085,0.079,0.133,0.129,0.119,0.089,-0.041,0.053,-0.082
'0:01.101',-0.196,-0.236,-0.041,0.216,-0.077,-0.139,0.076,0.070,0.126,0.122,0.114,0.085,-0.039,0.046,-0.084
'0:01.102',-0.174,-0.216,-0.042,0.196,-0.066,-0.130,0.079,0.072,0.130,0.126,0.121,0.091,-0.037,0.048,-0.084
'0:01.103',-0.177,-0.220,-0.043,0.199,-0.067,-0.132,0.080,0.073,0.128,0.123,0.119,0.090,-0.037,0.051,-0.085
'0:01.104',-0.196,-0.233,-0.037,0.214,-0.079,-0.136,0.080,0.069,0.123,0.120,0.117,0.090,-0.037,0.048,-0.084
